s1,s2,s3,s4,s5,s6,s7,s8,s9,s10,s11,s12,s13,s14,s15,s16,s17,s18,s19,s20,s21,s22,s23,s24,s25,s26,s27,s28,s29,s30,s31,s32,s33,s34,s35,s36,s37,s38,s39,s40,s41,s42,s43,s44,s45,s46,s47,s48,s49,s50,s51,s52,s53,s54,s55,s56,s57,s58,s59,s60,s61,s62,s63,s64,s65,s66,s67,s68,s69,s70,s71,s72,s73,s74,s75,s76,s77,s78,s79,s80,s81,s82,s83,s84,s85,s86,s87,s88,s89,s90,s91,s92,s93,s94,s95,s96,s97,s98,s99,s100,s101,s102,s103,s104,s105,s106,s107,s108,s109,s110,s111,s112,s113,s114,s115,s116,s117,s118,s119,s120,s121,s122,s123,s124,s125,s126,s127,s128,s129,s130,s131,s132,s133,s134,s135,s136,s137,s138,s139,s140,label
0.11098625198262166,0.14219764866350865,0.07837360069021188,0.23122712549689045,0.22789147681657834,0.2385714233626011,0.5063228271404299,0.5271395824115699,0.43487587602854894,0.35626495336471997,0.4252840573258261,0.45727282043597045,0.6006112827410718,0.5989612971075409,0.5743230339993267,0.7946002749055615,0.6247606070716476,0.8390570022192239,0.8166063792608241,0.8104758629954218,0.7358810992986724,0.9680585563983416,1.0390549861709144,0.9379302842006926,1.0484426527851274,0.9731835193701642,1.0857883107638144,0.8709522798795378,0.9890575222450068,0.6556688223701808,0.6991120740974902,0.6365598076277932,0.6486333532428779,0.5040194460904477,0.4347095783826548,0.4238172224677064,0.3637041451995819,0.21801210433622584,0.13737212913844482,0.10679375198909767,0.17770306671758307,0.2208036373231695,0.025568829994344858,-0.23692835434010232,-0.3106520876842637,-0.49962510830887386,-0.6866553869095655,-0.8608735699926935,-1.0571332028594784,-1.4382098010080433,-1.5690562315546592,-1.7363081492054542,-1.737604516450827,-2.0446023992358837,-2.1372198504681794,-2.3195831074429725,-2.2325613896700625,-2.312801827142019,-2.2111866279765438,-2.1647515490355946,-2.0042087413369956,-1.93367934574906,-1.5838639059672435,-1.5996620407201385,-1.471454416520142,-1.2258740822163992,-0.9436436869527246,-1.0154170820346262,-0.8541259561387219,-0.7075320264559374,-0.7291637179891273,-0.6325242568348974,-0.3333086046885588,-0.3180147696872149,-0.3086823152260714,-0.14796479605718668,-0.06689895144595198,0.07714932448789875,0.18657228270361853,0.08647900420827659,0.44334283300132904,0.4095619853064751,0.40698670181196517,0.5699498090767453,0.44456698478878676,0.5183236875607363,0.4520417987405662,0.6068251535180017,0.6352081995641328,0.5600131994200503,0.5032335813670452,0.40692027758602467,0.46611082509745816,0.5190938792081631,0.45706152811164164,0.4737261890831776,0.43169123304125595,0.47691471738067925,0.4366892286377848,0.5955453360482923,0.5976291306445942,0.6213611142604502,0.6042361442290649,0.603557116633692,0.6425771252271514,0.6453282639781223,0.7017851148698894,0.8430839773915023,0.6848628405814726,0.6527159675565949,0.6766516271014161,0.6501607873469004,0.63922916781029,0.6180403972005369,0.701986437384652,0.6799767538175291,0.6741489307672766,0.663692473300779,0.5150016894821182,0.3855116284359977,0.6325810624502213,0.2560190136096613,0.36860837644076044,0.23906950354282197,0.34082256661652555,0.18583823261174282,0.305335824735916,0.18470000119396465,0.2374430394826896,0.0744746450433916,0.10856191935098927,-0.12164081608116908,-0.006415373469050842,-0.14600700705238617,-0.16545194421271428,-0.158593610085383,-0.24896476942203422,-0.3887700192313499,-0.40860923021609885,-0.496062630494578,Ventricular
-0.008832841862334014,-0.000868223025465617,0.15241707811296915,0.11479025771758591,0.26203534617051816,0.5830820135991499,0.3790804594934634,0.4038033888493153,0.5163447696480875,0.3162921846398673,0.5740279843417703,0.643101477219445,0.7019109738528941,0.804023379768702,0.7786552169181644,0.6781394655637362,0.6373283145612127,0.8818692349937953,0.762452443558392,0.8421091309043193,0.9452863686675776,0.8533121182562121,0.7144532753113642,0.8728534046395221,0.835473742901967,0.749065540675612,0.9388290584428968,0.8790217998557479,0.9794060174504966,0.7870721833196018,0.6661601140801137,0.672877989595601,0.5282100966306807,0.5513838455944169,0.3486456233823277,0.18100400549368095,0.14558728263779724,0.05686310947759821,-0.04218954603561967,-0.16897614972586503,-0.2213107848588163,-0.3554024433659432,-0.3743821776404888,-0.5579974743340612,-0.6485860414154256,-0.547688116880694,-0.8875065430507088,-0.9815848460942362,-1.3390838433281913,-1.4585779477210306,-1.6002738660712779,-1.8869386481260093,-2.285364163779116,-2.412901534181939,-2.447906181546637,-2.7217377254166513,-2.6418044017155355,-2.6682677093972855,-2.79386654832492,-2.5573057974655007,-2.478735249317679,-2.432677837289867,-2.22670199553147,-2.054092588177915,-1.6949543339805349,-1.293468100784521,-0.8571377617873005,-0.5601749892736922,-0.33092414370740403,-0.07498626332547029,0.16986923356836384,0.3220411605166438,0.5005151679461766,0.4373082671384436,0.7149871711057652,1.0456657421266964,1.0487878222090141,1.1445186306832962,1.2090848010048383,1.2516450246220923,1.2651842008946574,1.3603268407903788,1.3023263312519784,1.105426171337828,1.1600353216498953,1.1328106242683564,1.3298989451842536,1.108439035620414,1.1663285302438995,0.9990891383175622,1.005005077233606,0.945737875254397,0.8642336015857025,0.7986686210192445,0.8376810167397797,0.7409194854529692,0.779197471713507,0.6952356134140929,0.7554438029659399,0.5808776828113134,0.5907463181230084,0.5256098462577765,0.46636449130636665,0.5029094453634811,0.2399055756310964,0.16627083737890633,0.22684920566098404,0.34106996363979236,0.14735266014238807,0.16717931233326605,0.06770121730587753,-0.19906195249425665,-0.1558502816222866,-0.29143498832251385,-0.3693700280315421,-0.4847955692761322,-0.4842420923470375,-0.4289238606853677,-0.46989531777367205,-0.5433954447999311,-0.6876545731253282,-0.6942325674374196,-0.7769109999043012,-0.618674328206119,-0.7017352755467705,-0.8983578262689123,-0.7654389811279974,-0.882943777602438,-0.7695854570418086,-0.7369070496548497,-1.0223512542032889,-0.595085871168901,-0.6652479044207548,-0.7901962952441991,-0.7004893278439107,-0.6014911201477322,-0.7808322926145864,-0.5408894234983918,-0.4861235442032375,-0.3990039805564547,Fusion
-0.055165182840015106,0.15784739589968777,0.239816101825257,0.170515186372238,0.26654405689078486,0.28997461102603167,0.2711705012351209,0.4058751253578611,0.5071824443216766,0.6027252307684038,0.7503301236089057,0.5984126341866784,0.6169036752766732,0.7903002433124666,0.5270012833376563,0.6898343796485366,0.877565614717338,0.725467712355521,0.7681626435272925,0.8181922689891207,0.8791865689786809,0.8276103337428166,0.8337399441741802,0.8188655994420416,0.8326018139371028,0.7937838411910401,0.7782503266048946,0.9517326070130127,0.7729926565014082,0.7671909996867996,0.8000887798217432,0.47866135874453825,0.43086499802684586,0.4451481518796696,0.3402235744542747,0.10733166478808748,-0.018330148748012615,-0.08851806362363285,-0.03693581318424164,-0.08441352434734684,-0.21427073775312738,-0.45561984787212173,-0.49667932368272094,-0.5013848823605345,-0.5872328636883617,-0.7519415586604559,-0.8757965464578885,-0.9900194540440266,-1.0481527144130354,-1.349147636123831,-1.7009219845230212,-1.9320224202611298,-2.16351656595989,-2.4072795915732548,-2.42133068844685,-2.530327832396338,-2.6645176922015485,-2.567573117956623,-2.70711490000966,-2.5734900048070184,-2.4404299411819905,-2.377249131696033,-2.1155779917748823,-1.9536170510529907,-1.6884103805226056,-1.3995712224601882,-0.9757025724285814,-0.5281463056006901,-0.21787612677989918,-0.2105539749164334,0.11571904092368704,0.37778312168222367,0.517247033840046,0.5880778292984771,0.9058489955790703,0.9785391850866966,1.1891032846424605,1.0747929684892532,1.0476133630792763,1.2343673005451024,1.4144868123626446,1.2806525404222413,1.309568949158318,1.2824456234840087,1.1109234990913133,1.104081996834691,1.0957036201693713,1.0771347026399711,1.1361746105730333,0.9551721620170122,0.7817495965946532,0.8715652553043415,0.8691177498874475,0.9790510412988354,0.7724472243363242,0.5382450987055374,0.6913943949642912,0.7309191867418877,0.5018509086811339,0.6924155906205861,0.6353463325152982,0.5500800058859869,0.5353232540804359,0.4013631564953316,0.326108350860676,0.2667361963664798,0.22677320204250867,0.34749894946423776,0.05834506414696516,0.11159237748654963,-0.09588897398908103,-0.08841123820888816,-0.16034901764344664,-0.49306470521985957,-0.27700036232792896,-0.40620523739753545,-0.5493285669321717,-0.4493282525977249,-0.43595474954937785,-0.5702212783799098,-0.5347965580744667,-0.4876250007350719,-0.6993485205264018,-0.7085526356048197,-0.7269505387533636,-0.7062581899845836,-0.8454009872397636,-0.712742865387891,-0.7146810804104113,-0.7701153533295371,-0.6693018623311591,-0.6889348605909782,-0.8403976926287405,-0.7255498339834349,-0.6303851855161573,-0.5754930214351888,-0.8243921453335312,-0.5825252566202526,-0.4248122958472058,-0.38749632627948793,Fusion
-0.07341467380082992,0.12660462598224848,0.07342235541587502,0.2204865068103585,0.26062674190743246,0.32625039456887284,0.4077562190250972,0.4029617652194461,0.5799313691916523,0.49362680572083245,0.6727208315685387,0.6186212863021905,0.5271619334034543,0.6566800820946306,0.8517823398756396,0.8625417579818068,0.6315588728606631,0.7423124619972366,0.6561298307789881,0.8269340107904098,0.7708902994540333,0.8596606855515547,0.892384806924265,0.967695080308097,0.9930949582147088,1.015105346570645,0.9358060186135108,0.8395964932465383,0.6812004805295183,0.7209287216452182,0.6147131286791477,0.6811746019977934,0.7178151217426433,0.37659723433016623,0.22182507522093717,0.15079524834473462,0.27062208382577024,0.13250835107359782,0.025456440235610778,-0.2539479486272029,-0.15480732117570678,-0.30574018467694586,-0.32542487012710225,-0.5693776746368953,-0.5880542559016957,-0.7518597433280244,-0.7906045507939763,-0.8371682845537536,-1.3133034228942404,-1.4477741003390956,-1.588414823696003,-1.9509662065489164,-2.2200915369208247,-2.353540303548715,-2.5551838650711836,-2.4897346492498587,-2.6562961254374686,-2.6483092687893324,-2.731909054237918,-2.603294773477838,-2.545653575729288,-2.3705542118094463,-2.1949836418739843,-2.0406710037374682,-1.663865269608389,-1.2322022025604378,-0.9896832245058571,-0.44441731018428793,-0.39282955679541,-0.06992369446085257,0.08820395555953435,0.3814374648375271,0.5029446596996935,0.5419522806287597,0.9514866685854929,0.860258991342101,0.8557288138761404,1.1218337655160262,1.183021176695825,1.1725905744752485,1.186309995513631,1.2637410600841459,1.1771843274288716,1.3121440143920184,1.2775326822743054,1.1861522142518146,1.048117752843671,1.0089625940521567,1.0859087249355481,1.0503072159892475,0.9796450883625173,0.9833118075994757,0.9481298639835899,0.873349097870664,0.844198369057878,0.6732387648139757,0.770202905821119,0.7172073409811478,0.6244484251904989,0.6928689815335588,0.593911864612352,0.572181810616284,0.33689158345151893,0.42452513083429444,0.43054231079386657,0.2865274942679267,0.2385945156423586,0.2053459111071836,0.11829961730389685,0.15571644780528693,0.02484570435762702,-0.049416398617153086,-0.1286450204504325,-0.12139432443775244,-0.25164064786548074,-0.4364673744752964,-0.32691396935302985,-0.5289961387218802,-0.47542764565672224,-0.6639967394374077,-0.7502603898193175,-0.680570240195831,-0.5620469150458378,-0.8065066643808684,-0.8398326432410647,-0.830057319504153,-0.942760833773914,-0.6909081044470883,-0.6500879508190445,-0.8110331922465629,-0.8494184215092918,-0.8123493236996112,-0.8349638109503786,-0.720187145196786,-0.6261168252648971,-0.524109596864824,-0.6818165503049288,-0.6455719567311524,-0.4760529164004485,-0.4914386788214115,Fusion
-0.0009279839660632578,0.06450669836423151,0.019845298202725806,0.02124756022500915,0.11026748207122036,0.11269587552316612,0.3122796797465669,0.4145884784306995,0.3070113709147876,0.504941048783162,0.499699866919538,0.4563263959002518,0.5075181388127152,0.6574768512668581,0.4134030871832042,0.7182086792356968,0.7308187578279035,0.642824983663355,0.7155132854026158,0.889099402841101,0.6934018984976984,0.8251536699706663,0.9329947276651956,0.9358126963266132,0.9527875780673638,1.1106681431123018,0.8767322863864502,0.8617497148605487,0.7088654998336437,0.7708678170982877,0.7394928351435095,0.7469155379299757,0.7243142885401623,0.497610419978221,0.4933909613034631,0.5498391680836217,0.35891851590887025,0.3517582175806343,0.3344879252281747,0.10048552537721298,0.006877833072963774,0.13952604573548724,-0.04485900510826141,-0.3145122137058222,-0.42848859573852804,-0.5155270818421325,-0.56372245332953,-0.7911090807452478,-0.9939418110944247,-1.3334278873363434,-1.5201281377854177,-1.7967739176822493,-1.9616069270628866,-2.185394178994324,-2.29513064783822,-2.368854360052151,-2.359289074011456,-2.301887967338871,-2.14394338008942,-2.2080044548971176,-2.001338023197225,-1.9099604565780783,-1.6532134000474166,-1.661553854293031,-1.4384022984553144,-1.1856735903310458,-1.04696796771527,-0.9127712335715517,-0.726899679033842,-0.8667296148513071,-0.7235982064216189,-0.47757995734364467,-0.35825150143795426,-0.2716487743289728,-0.007162000225943127,-0.19614357816969796,0.007383083076188918,0.0708438165753125,0.22055685661668556,0.28841315582366256,0.2952134355382185,0.434680332429959,0.4647334181923475,0.5094590376527889,0.6180286460660123,0.7419214997175585,0.39626289028525696,0.6503814099283206,0.5911208909031148,0.4699525840880832,0.4893528655756997,0.5795429475680226,0.5067439335958095,0.4966322610702327,0.44808911629933135,0.4493927266521896,0.4442091865226276,0.49558851881727056,0.5437320887151911,0.601773798739127,0.5278011128065548,0.6742418287944387,0.5604513740010778,0.7123220575480492,0.5971294569332372,0.8407993813678686,0.7413955310390782,0.7637274883757764,0.6862378421881128,0.748638783095882,0.5964204266449207,0.6114588093146228,0.654340772299646,0.7862202478784563,0.7277120422698339,0.44728476778059006,0.5230741509742038,0.567622529543065,0.6446754842511702,0.5304629982517571,0.2720250136539518,0.34280727799470717,0.45354647937931025,0.3695199086672714,0.3193902008029397,0.35134567970651753,0.18711304396566797,0.22200675130484893,0.24787769009386437,0.08430348316841942,-0.05573058775135437,-0.06891242269201084,-0.15748009623268977,-0.31448635391737834,-0.24772612765554647,-0.18195436072029075,-0.2791381250219133,-0.21681195012272786,-0.35793765298450486,-0.3407605220624221,Ventricular
-0.06270549611290668,0.18188942890918353,0.23781393779310633,0.1707508093701853,0.18213517777314445,0.355577170914018,0.48474971087569485,0.3517621066448052,0.4076580747282875,0.6054670652569819,0.6167516838112211,0.7167013420803062,0.7095599916146147,0.7487326446309683,0.7600165348984657,0.7731133692708932,0.8404314632938095,0.6933406151446164,0.8078412921989752,0.7837042177607407,0.7852965997393658,0.8814284884971035,0.9037150417387722,0.909566764517406,0.9200851259674725,0.8834717988537883,0.747165902063747,0.8314765217978585,0.8620728089545108,0.7963871343868723,0.7946283131664476,0.6689355357903671,0.5589712380090422,0.3844199638516649,0.31368205980413416,0.31500001270986333,0.1051012029864152,0.09569209183298515,-0.2005218420521681,-0.2125214534069726,-0.35783857132558816,-0.49240415540698146,-0.5403055902498198,-0.4974257767054415,-0.4697556915007055,-0.8330135462733165,-0.8440688075178184,-1.0314193228253292,-1.2051525077491936,-1.4487814770848526,-1.7255411825010651,-2.097547408208744,-2.1087953847762377,-2.279345363045423,-2.5254005884206037,-2.625699412435454,-2.790506972459795,-2.728428343583948,-2.6202918364971897,-2.6953201989339304,-2.549318785334364,-2.253680984817282,-2.2310347019315797,-2.0858292798762683,-1.45126126659444,-1.2803146187815015,-1.0058360494095446,-0.6049007595318936,-0.435072157159406,-0.11498584328459246,0.22989211319147065,0.24177026868807966,0.38889082668664593,0.7248371805557758,0.9605550041255791,0.950974831220863,1.1551615129744224,1.011057613161415,1.2099932145760368,1.313348590091296,1.2127267383225662,1.1894174790012333,1.2529823403302238,1.27193471389839,1.1975845867218435,1.197108603288968,1.0404951021399682,1.1228794643872797,1.117822979375722,1.0386459122695713,0.9153982276674879,0.8119037097976907,0.9134003827973263,0.8259067216040531,0.9673888794231426,0.9168843081529227,0.6182301028565467,0.7086027246510064,0.6286053870757137,0.5507825229458965,0.5854456227428957,0.48560470070144646,0.4222675321500403,0.3572909147135989,0.48527587916915255,0.3011071314488085,0.2476010756836709,0.2873357100187628,0.09365630701363474,0.07622978467429165,-0.07594685835698171,-0.12633117050564893,-0.1447564127047926,-0.20527098019341006,-0.226770100026002,-0.26374355900469754,-0.41414703494260324,-0.3808788169471905,-0.5870966179672963,-0.5149008166780868,-0.6761419808552754,-0.7147386900930327,-0.6127219184032193,-0.9052313641795559,-0.6996414041007479,-0.7572593515996006,-0.774455704882402,-0.6674331858372553,-0.8858505475919972,-0.8913577426995861,-0.6997535807396812,-0.7909208457063475,-0.6568149557572512,-0.675416342509489,-0.6705644852429206,-0.6774095304826275,-0.63983217333666,-0.41502384748178456,-0.5729640541186737,-0.38699570370591807,Fusion
0.11447958736209146,0.13110699502447148,0.05134921090844588,0.1743719381071944,0.31621614621236477,0.269406615529723,0.392926950594185,0.46534463217208194,0.6530592662515644,0.5460417149745134,0.47983875249987373,0.7099837409558456,0.7698295630250751,0.9014888111769078,0.7118734369880729,0.6600971681636321,0.8161178770715574,0.8434602021439033,0.8577692106461247,0.7866563409431458,0.8593667395919409,0.8398282505457902,0.7933896266094101,0.7589653846513251,0.8292248474943096,0.8558340363102575,0.9163933488069951,0.8488462288179978,0.7857810433502735,0.8273999029936672,0.7174987849660761,0.5888359862206904,0.5783616618678677,0.5015044197923756,0.3333634335155098,0.36511454098343255,0.22832015827317798,0.07327496159570299,-0.08929267405379296,-0.29188997207220324,-0.32610073282462465,-0.23899170866712885,-0.46787473894266784,-0.4514595299399299,-0.6575641623594727,-0.7192484812848159,-0.8842430892788415,-0.9464425638403052,-1.1366090699448321,-1.5602967469903506,-1.5634958340612106,-1.9391033213202613,-2.0673735989866002,-2.256001879299563,-2.5680601574455166,-2.50023303076821,-2.8249495274557916,-2.771181895694036,-2.6961566154291097,-2.696898793038611,-2.656155311415193,-2.3433672832528347,-2.2839703415820742,-1.9894002505111783,-1.620064578355252,-1.222874625935074,-0.8159697052831542,-0.6666791085809617,-0.17522001098469892,-0.03640755952540006,0.173527844555362,0.3183870452454711,0.5267246626698898,0.7730475139525028,0.8374391610408316,0.9948225645054483,0.9440628791873806,1.0683118143498707,1.1795077685370465,1.2633353757733994,1.2810906793534267,1.4093471024298707,1.208115217587567,1.2810817159502101,1.2564975021250313,1.148364289581818,1.1354905676561566,1.0459299838916292,1.0808157630135151,0.9110725491925907,1.1130924176202106,0.9214207675272282,0.848693043436483,0.7326492889177605,0.8094406998776724,0.7844210541943836,0.7920604089788345,0.7129835537039694,0.9209918052127218,0.5441477860481015,0.6480987828165959,0.5812997091860025,0.3875193142626605,0.4126409665456782,0.5670529483168207,0.2751058033892067,0.4142468333798678,0.177591564459697,0.12156089827518235,0.020663032787640208,-0.09748119211416104,-0.18370729441625605,-0.20304665591103757,-0.16107045497303954,-0.2431137590355908,-0.37908761349392167,-0.25953320580457706,-0.5347361930104306,-0.48465567068372745,-0.6760669935529128,-0.5931697084609525,-0.6175000673813628,-0.7109460944078753,-0.7230316762605897,-0.7907836983322534,-0.6986865794220339,-0.717916176072054,-0.7618285912936558,-0.7439721980160525,-0.7529783306058784,-0.8213727513953354,-0.7455756113185005,-0.6935532265611679,-0.7444669199832881,-0.6513969565879727,-0.7664750090864015,-0.7144395795489404,-0.5672917000736423,-0.5490092156549315,-0.38218386301607765,Fusion
-0.19193362360845792,0.10370459496488851,0.1782018614118019,0.12444715748368784,0.10711286477031569,0.3693840902507494,0.28265614513549614,0.3119589256962214,0.4187503373333826,0.643164873640218,0.5022854732023885,0.514886539854567,0.5410517027295307,0.7005668806815565,0.641487665371721,0.698400467088651,0.683451551659946,0.7328317516631335,0.7006699379563995,0.772502900345758,0.7433028939031229,0.7990747428532633,0.9204514448792545,0.8627485234112331,0.9590634909103961,0.935916350684617,0.8754571033699335,0.9650386346631455,0.9719455479282505,0.7519431801867132,0.8414156721908206,0.6321222034945092,0.755978659078552,0.6200889472273903,0.3995831277878008,0.5064030337471724,0.32485900894280734,0.23302692168646028,0.3025587752370939,0.2714173909635853,0.13565080916016375,-0.019887190602195244,-0.07763111596695732,-0.2549268294751408,-0.35790609868190343,-0.46685155554594276,-0.7893173447107771,-0.8339429818515854,-1.1923045420697147,-1.4004144904667313,-1.4672072802388345,-1.8004306909462595,-2.0076393991208334,-2.119217743730671,-2.272688199033234,-2.2922514689369926,-2.3337078060126344,-2.4143904832664487,-2.4141233818458594,-2.194991173156827,-1.9603309568830243,-1.90088919306486,-1.7580516001447226,-1.422700608670696,-1.3353478748717293,-1.3769121796965962,-1.1158112844837524,-0.9429220073329337,-0.9250496513143448,-0.7514651860578203,-0.6215389130223756,-0.5403784002705916,-0.5201881082703432,-0.2065996361562017,-0.20251169419451465,-0.19161052007306095,0.04793358654447932,0.07003473436829162,0.25018667429509833,0.2500037914165509,0.21853173586368,0.31828102697742416,0.5493424577012944,0.5818243769368034,0.4209788510805838,0.6549099542147424,0.6314286556175103,0.4965368710272369,0.5334787774621141,0.3530646624981608,0.4622983853495863,0.49206247789479124,0.5274458362299779,0.4912904121286553,0.5141214184628645,0.4326649262192209,0.5473727508914198,0.6710336302376566,0.5891690917989753,0.5761298231334386,0.5343982997969523,0.5852797726479898,0.5281158667672838,0.5351599488040883,0.6608053084163169,0.7237858018154772,0.6210771330836666,0.792105904469174,0.6551308948378886,0.6928758674888218,0.7722314396069696,0.6644968238120845,0.7291352236037119,0.7106016328507756,0.593271982522511,0.5744436320887668,0.6997492469634641,0.6801615895601228,0.5942121200098166,0.4415091804838716,0.5444936840392341,0.41437364389037085,0.2944474891320923,0.30225647023414287,0.29069847261507276,0.34931155002243847,0.15060465443260987,0.08884261569728233,0.0779097268670208,0.05659701758277954,0.06966162183630317,0.010842119356401274,-0.26518919545913444,-0.16367046552713005,-0.17456978689359304,-0.30242636932323347,-0.34232554558334904,-0.27555521395924937,-0.31479740304537146,-0.4256262063147973,Ventricular
0.10086062810903519,0.1488796963953821,0.3861513496219581,0.5256500362884163,0.5715356693828612,0.7726700895803948,0.8002122372925322,0.8435828216152721,0.7648651327033598,0.8890907741452144,0.6637218225391988,0.6338140969269123,0.8158365551730864,0.5841959436822549,0.6036786860165427,0.5832043803511532,0.5259495686527647,0.5520371782027409,0.6756739949867755,0.7496352504914677,0.7759742795747275,0.9361763534886183,1.019051024275031,0.9923767675945877,0.9316468601299266,1.014904312363814,0.92206792428483,0.9095471642181875,0.6238711570071938,0.47615177728285407,0.4569432806788417,0.23172898159876548,0.08781965660567695,0.09578270973939071,-0.3142035381471798,-0.3304263714894594,-0.4502049035907772,-0.4394597934039539,-0.7492702778773301,-0.640445698872929,-0.5674282536185379,-0.6164977409097486,-0.624550993805362,-0.7280598762443442,-0.6976615293410365,-0.7648325274796388,-0.8888509996728322,-1.22398290843689,-1.4884513727249065,-1.7474014168909366,-2.129646107718745,-2.3744317424002057,-2.6718227159225436,-2.7607596223850086,-2.9574564971112665,-2.905654423503388,-2.80880222729398,-2.6287552354895616,-2.193516098161025,-1.8785143889853904,-1.4796129521789865,-1.0101839214019996,-0.6820019207906634,-0.2812149352627958,0.20397063416896408,0.4116318800819838,0.6998472876733166,0.9537259189277087,0.8960189112452002,1.1870424517882454,1.3980877288110258,1.3997917527772537,1.4786447329582297,1.518827682993802,1.4166901867277994,1.3507054879958322,1.5462154377230537,1.5439507014267786,1.5368134845497037,1.5578127439428966,1.696171763612962,1.5300980353352176,1.6043093063678109,1.5640012684134097,1.5037468639390954,1.1974770419132514,1.1391734542200467,1.190297145734142,1.0185944608285284,0.7696564990620174,0.4706748767487106,0.24963046164839683,-0.00793347653994926,-0.22995139832252745,-0.14070279101185895,-0.33821689495624424,-0.4774268725771995,-0.35447385365589634,-0.16449941103360904,-0.3555520930174627,-0.4142709877297089,-0.3138795209689222,-0.41929405649488144,-0.41493341853862925,-0.3788743809147889,-0.6011119753251485,-0.5309235911690168,-0.6630907568162027,-0.7657238125444282,-0.9139345061141567,-0.8491870646752558,-1.1440878149626028,-1.155167045183551,-1.1244017726113094,-1.026975896060391,-1.203784853364368,-0.9855243780157279,-0.9305835681390693,-0.5933274030407343,-0.5627090121895475,-0.47007118273574866,-0.395626025867598,-0.14258607030606799,-0.022660278173540167,-0.10615392584408029,0.1585381827946763,0.33397574572477384,0.28458938724692573,0.2421634015010769,0.2333039446703394,0.19454184657372026,0.17399626722745212,0.27124063643993923,0.23098473054085417,0.3353381668748336,0.4525460193308117,0.36229443066629835,0.4901962775959053,0.6716090766437585,0.8212765541848711,Unknown
0.10150634926240357,-0.0883199272993152,-0.0201568163310386,0.05922782813625015,0.0979820172635965,0.09441907410272637,0.1696854493598738,0.23736652833976513,0.31889415986930947,0.2520843683845197,0.164466173876558,0.25106738782117183,0.29160655009160424,0.37925945871495415,0.41584799365888153,0.6014025545224632,0.4572017066068903,0.5827140314279944,0.7949033308931424,0.6063020675712874,0.6989755084050426,0.6307268280712992,0.715706009801093,0.6348758781217763,0.7579260842078223,0.6561203330641526,0.5375864177345319,0.64960599766707,0.5711812517365632,0.6132091971533531,0.4310750480943486,0.5431970498494336,0.5700282625031288,0.47114284991708655,0.4024095780139126,0.498325389799376,0.5982411059559017,0.5878419590357956,0.4604881502206837,0.388213540218629,0.45151063832590393,0.44268894734941705,0.5090243960174397,0.4569099635603109,0.39553109316028534,0.532048652844581,0.43778732488680827,0.43401194714541885,0.21459341967932707,0.07996127664840394,0.03408625933591851,-0.06875025726246564,-0.21192196437993774,-0.6938114725065028,-0.6013020039085947,-0.8594475386347307,-0.7947470521804091,-0.8873891710972347,-0.6019698350968551,-0.4243508709786695,-0.16694667437642813,-0.09652383762063954,0.06019474436050052,0.1626363932167384,0.040111868325542296,0.10851332120344112,-0.0758357550392716,0.11256056319204799,0.19210143576631103,-0.08479384835249856,-0.013136666475641455,0.044851818339579644,-0.0416163187601298,-0.0478340662940484,-0.10715046960910524,-0.12238502003046095,-0.10428061977418285,-0.09972906560276028,-0.19944820215253345,-0.10803482892867125,0.028950897943636644,-0.12007264780984453,-0.1723381219172722,-0.06998015218529646,-0.09841905413760763,-0.13199146911243084,0.0006828590755894055,-0.056238076965015565,-0.04327001947099808,0.0189664749940704,-0.12296926716506855,-0.1540389021136645,0.01727098191883305,-0.21924245959203192,-0.17694725898630798,-0.28113058706114025,-0.21708215471780765,-0.18606647253841838,-0.2529343981432553,-0.11026653602433781,-0.2512951563571956,-0.44546611326752,-0.49502612117902794,-0.2063418542719687,-0.35682777060320736,-0.4091911013606949,-0.46075304719431354,-0.45157263140787784,-0.5954925773528261,-0.465031185344092,-0.4701584288851153,-0.5443944969495456,-0.5095880755063606,-0.3382074896381674,-0.46101141912628335,-0.27568475890795485,-0.5699304539847293,-0.4607465193956927,-0.5301279317611804,-0.4895928204512414,-0.44475854888888033,-0.33815077751825173,-0.32615114003758217,-0.3852469336376648,-0.4918552190753661,-0.1775010763893986,-0.30005798177369497,-0.34741359717428033,-0.21650198343501317,-0.20203955595700246,-0.22366179163753078,-0.16501348305567054,-0.2479852422840057,-0.07315886662390544,-0.19179664250285008,-0.1383593211080053,-0.01569238812879959,0.05117549504701091,0.10426827555174491,0.08446385908648456,Normal
0.009962075040633803,0.18014327301402028,0.327715391118928,0.510035102216652,0.5674460385439861,0.805556772744878,0.8094236971524184,0.9002759362481019,0.7047126761121634,0.7945444892588315,0.8886447232239084,0.6475361252610142,0.7381151272680584,0.6293031538108311,0.6841693474567607,0.5578836356512528,0.7253642932777907,0.7035174153912109,0.637531054195568,0.8459731570408597,0.9345728816859862,1.0045158935715937,0.8420445086505418,0.9844288033506617,1.143915743856259,0.9610980403504377,0.7165668166246314,0.8349428070497852,0.7509777288573223,0.6529680935657329,0.3444376800912368,0.12685676243754454,0.16423662740725956,-0.09690151013674225,-0.2535847461598946,-0.433330637669385,-0.44232613060722603,-0.5888889796120379,-0.7128725314967727,-0.6632110531796369,-0.6695598464893572,-0.753774930798079,-0.6536922082020128,-0.7616589120416836,-0.7669232694269698,-0.8237539575202717,-0.9750259317696097,-1.3573745085061075,-1.410184411472233,-1.6332147144178157,-2.024669770743837,-2.2216615558144426,-2.5682295030706466,-2.7970481746311218,-2.9422776139085625,-2.855610716274487,-2.920917704839503,-2.5643687950792664,-2.1886389105668713,-1.908351745372014,-1.677401315873822,-1.1082405780273479,-0.5682158990633158,-0.25216380477936196,0.21126476508242883,0.36833273217829654,0.592529681692746,0.9671436712761662,0.9541243874014129,1.3441996815384987,1.2706454693197542,1.417672019946854,1.532021490860078,1.4652311284043036,1.4213262676902854,1.4589113378915533,1.561980222615979,1.494571951681169,1.5750165584619529,1.6095146431194582,1.5779530721351538,1.4352287236180183,1.587237856121272,1.550680930893671,1.3444485100714096,1.3283290817876674,1.1183839547656949,0.8510357918827042,0.7605365061942834,0.4673399059506424,0.4287123190545656,0.2842759130389995,0.2795124275785282,0.015152389020318124,-0.11866949885042649,-0.4451769973256258,-0.3387136863371711,-0.3552196566580265,-0.4413288285318342,-0.5117330502692923,-0.34429705084430884,-0.5144838032395814,-0.3923192300755878,-0.3369953370200272,-0.38973918520625234,-0.4515548186826339,-0.5702645694229694,-0.7096604395971176,-0.7995741030001056,-1.0828540581990878,-1.0621971861756458,-0.9967653194315474,-1.1280674461136577,-1.0567075816170335,-1.177785571819299,-0.942155869463653,-1.0371432263433453,-0.8061733755734145,-0.700443364300243,-0.5750382408874009,-0.34356743946341595,-0.1878742961926992,-0.15897293010437247,-0.026194195809537975,0.12679557052875515,0.29712842508334825,0.26037348358567775,0.3664138736332167,0.27542064760943946,0.18659432955223368,0.1196326516939823,0.2793986689801002,0.1954415057391702,0.3271071310760272,0.33569960303044905,0.35956539295525863,0.4177166148771896,0.56808713249163,0.643841857641782,0.7800098885616153,Unknown
0.021893068682552634,-0.025435653429952396,0.13071437515174275,0.05101884424014714,0.027089212688388264,0.1306011117503812,0.2920331018144282,0.18449099051720652,0.15204893282176263,0.08357441799319143,0.21509988247504114,0.28165173584404657,0.2666282580919232,0.20485746845718147,0.31674931982389143,0.5537338993045631,0.6088428377257198,0.4810028551902823,0.6603469620495688,0.5588327965419615,0.7997089152710104,0.7259361359927593,0.7851103777202212,0.5600857821981845,0.7283929800825056,0.6437208992468807,0.6805725241963827,0.6555500056915642,0.5620707437848161,0.4889173238478035,0.585263752904528,0.5088787369171305,0.43833813064934063,0.43140087061933063,0.3849566428663741,0.4608306966639625,0.5882072461393777,0.5119939165615058,0.4523810085272866,0.5552488501831508,0.41940688621599864,0.4877951813545923,0.4589382235350163,0.5276405338397088,0.32961396042569663,0.3756917877985551,0.2954936027636589,0.37841095718220197,0.4495064547004229,0.23346668953190464,0.1082352067958191,0.03943117072080732,-0.17254648111261844,-0.5135174082554221,-0.6739529807343623,-0.9592491840465764,-0.7933327049023688,-0.6446150609843403,-0.6005813665355564,-0.5979130750837566,-0.2770200004126152,-0.02879450247911647,-0.011381112133415597,0.17623665205505018,0.13925855299175355,0.032615742543005415,0.07777440880021648,-0.015146335984147836,0.02112164201631652,-0.029606423767207075,0.08815477837723706,0.14369427881293018,-0.15862478329631402,-0.21489933331028666,-0.09548430803532501,-0.20960609568972238,-0.09364815919367925,-0.04314789026943461,0.014598450554997339,-0.08664150535576647,-0.11198423514107578,-0.2448127376485789,-0.0712629113524381,-0.0521638859024254,0.00986651596935572,-0.08160317120900298,-0.04525482588188904,-0.11765569441726408,-0.1765963106734613,-0.08198748270050338,-0.1259413646763231,0.012223653540074392,-0.07784951817467006,-0.10783474194008844,-0.17756608705573657,-0.3957486588310599,-0.05752637747009702,-0.30033281417265467,-0.294915039629838,-0.4180077804040654,-0.26049397830506493,-0.35949917029200595,-0.46537094361418463,-0.4542552584575307,-0.3075791372918868,-0.46217822449276297,-0.4812798751808354,-0.5487648756970205,-0.6284932073520163,-0.49039741284618094,-0.44981813169586704,-0.3840966323552136,-0.6463856819808548,-0.5494293072754941,-0.4974567127472104,-0.4416569309964599,-0.44227879438801243,-0.4287111993526145,-0.37369796297583135,-0.4651024730022234,-0.30377077705744104,-0.3286993523239406,-0.3730838148542595,-0.20283106871634315,-0.18911797164269817,-0.22108487781646613,-0.5186813461362099,-0.1317947761327512,-0.1749157641228654,-0.05788247858182144,-0.09885050709885049,-0.05062855010720807,-0.08529046703693391,-0.02605643818638316,0.047482624336454726,-0.07258936961347427,-0.19337497694717598,-0.06973809415501916,0.008601958058712757,0.005991006758883437,Normal
0.0367611015273402,0.05675594494329968,0.27400336978541096,0.14484801735718655,0.24279956755182458,0.3602134321392072,0.6202921563513755,0.3784546280731937,0.4167010071741336,0.5767304475545136,0.7248611290652005,0.7206015227043986,0.6323925659138424,0.6272991511946304,0.694663649174407,0.7782677921814644,0.8129995390304505,0.7821734890244821,0.790171240639263,0.7969731533143445,0.873487098886143,0.8591914835283448,0.888232175211147,0.874089869090803,0.7055259069351514,0.8620936254994581,0.807855500246545,0.977910975242328,0.7349958478952481,0.6314818229483511,0.7865357849373034,0.66408649361686,0.562160416601275,0.4804500023541075,0.33313858228653875,0.19627007664587215,0.14282539603555225,-0.053316495925649965,0.05850090350565386,-0.19846238664039179,-0.32601103552761873,-0.27920098177151165,-0.46010263774883803,-0.38868845125642604,-0.7456243383458547,-0.8367813385206813,-0.8755807967563525,-1.0029273670462928,-1.2682768655901608,-1.4522103429195887,-1.5331103785635425,-1.9742507495684118,-2.283042975083605,-2.3798850101610363,-2.6135516250198605,-2.5838568363178767,-2.6421156208565604,-2.699003280397226,-2.6324614378254525,-2.6998108356491737,-2.464880783442182,-2.4708380827513547,-2.113865475709168,-2.021513196218592,-1.7102240383618608,-1.3258383891066194,-0.8932529392755105,-0.48115444277903685,-0.27039629249784625,0.12160074037980553,0.09431575529900511,0.32431998616038504,0.4133762670786014,0.6092363650003894,0.7320275079459766,0.789566882311559,1.0884830293786616,1.1502027581580743,1.1409133838461865,1.2486705592031937,1.2203646641632557,1.2475818073193314,1.3018504452798287,1.242421507514952,1.217108671517853,1.0274812386876397,1.206357311781831,1.203246890860211,1.1392796379796633,0.9738771949051706,1.0559241578146454,0.9755288074660337,0.8365408837989678,0.8474629189117513,0.8297959141291242,0.6168845738269284,0.7831673608886985,0.6398992500165833,0.6048157015001746,0.6582492083885852,0.5714167080179955,0.4688274914693331,0.5075015598553814,0.37001763680782673,0.31024109195438,0.4110869065901404,0.26541304463706755,0.21288903792846012,0.24436422649181594,0.032022393209938785,-0.0687826028253524,-0.13608720662274518,-0.0064680752575045075,-0.22890372209570545,-0.36085891839607886,-0.33876215397729065,-0.4596491825619394,-0.500098888597264,-0.3909531926704804,-0.5613110836445716,-0.7196532396774209,-0.6939313224929675,-0.8433296438570901,-0.7873050340163946,-0.67242779760208,-0.8309696841133217,-0.5765229532854036,-1.0059333259794714,-0.8354690481481608,-0.7881731596278841,-0.7836729696355353,-0.7290003988482158,-0.7758280322026744,-0.6278645533165489,-0.7953760927699517,-0.6797832512703169,-0.7087758906782902,-0.613534575205059,-0.5445800293010848,-0.4207457474333339,Fusion
0.031444520962605575,0.2897182610157837,0.4286173672951011,0.6236683186994002,0.6508236971876323,0.8743466369577078,0.7424434520221492,1.0190834843550316,0.7884347846152366,0.7821379010557543,0.8654153727877621,0.6917989219213383,0.5730813047305269,0.6697502395200061,0.6347885233140559,0.6228729329873145,0.7412599336292278,0.5474311311416445,0.7768287351759958,0.7886942663098166,0.7682734885814978,1.0717365186859835,0.9286909779245849,0.8879576695390397,1.0077885111449432,0.9139101330175242,0.6918560927408521,0.765167435717391,0.8718763885739133,0.5132322699031778,0.3325412953404128,0.3047771910458349,0.10231102743204751,-0.1064368664944034,-0.38731560664696785,-0.5037768546923657,-0.5215237831808005,-0.47662363241691735,-0.5467124874339415,-0.641796867658437,-0.47608775306197304,-0.7536050431031048,-0.6370186244777366,-0.7373937317873109,-0.7574768336971723,-1.021553757149956,-1.1096180277716874,-1.1915659484193522,-1.3856509850425291,-1.780164245865715,-2.1346682901505147,-2.38461414782811,-2.6644510786838813,-2.796111001823761,-2.9245355646827123,-2.939335157794499,-2.7948037498516336,-2.562248487347534,-2.3344905215314293,-1.9769080314592646,-1.5487676206172936,-0.9358760441064218,-0.6919619991719181,-0.28362983950030257,0.00944693217978057,0.4443285598441055,0.7313114955058581,1.0494433120477935,1.2798336104958483,1.2343414906386743,1.1919686860189342,1.3391302258429019,1.5038959998480432,1.4339994542784527,1.5547593020218002,1.4897251107133438,1.59776965612288,1.7139259812832237,1.5813211713619146,1.5824640042631444,1.6026530413571922,1.5597647098977947,1.5402784945928434,1.4832460858402656,1.3723725774717679,1.3848231865800187,1.2057825477214736,0.9825213521441186,0.819942407853256,0.503105599256259,0.46661570923653767,0.18006283148073543,-0.05291237731024822,0.015666089344906375,-0.24945764977050894,-0.38259106612559535,-0.5029726427160085,-0.3207302705798159,-0.4145525597385123,-0.2679349021051328,-0.3488485070328305,-0.38685733154813234,-0.39317498346722296,-0.35794157991613856,-0.28134334052190524,-0.55431630283648,-0.538002328448323,-0.6357931602569075,-0.7955880479468219,-0.8871381954942055,-0.9549265328433852,-1.0456412066558967,-1.0582565758076175,-1.2967492704970194,-1.087279328812291,-1.0408218981633102,-1.0415854453576348,-1.0077603563136548,-0.7678545062936195,-0.6321155103644672,-0.4723597197789984,-0.4348634238603444,-0.13517914373304182,-0.14865980586584243,0.17580432792515188,0.04130144663029148,0.22478903760512708,0.2516314142671156,0.16684493201884748,0.2048242220437605,0.18191565999773335,0.23749253181315172,0.16927613688526716,0.45526347479644785,0.23555445441683107,0.3616501933628626,0.4599946127492257,0.5201605686844756,0.684302570484768,0.8267861900066723,Unknown
0.005707035272848507,0.06363247867926641,0.344617028667022,0.4412407751038741,0.5995933641626943,0.6878299699952791,0.8834353805127421,0.8283409919234106,0.960463909895408,0.7716254542255409,0.7576608846963917,0.7072751446894837,0.7435926600410538,0.7125090625554876,0.548656281375876,0.5376074093932176,0.5945896032057355,0.6158949869449488,0.5833870322925103,0.7845486069901836,0.884256230845478,0.9219110918811249,0.9315595976922016,1.002955299851158,1.1041687481388252,0.960606287262288,0.8369604657879225,0.8309146425190977,0.772316253482919,0.5920436880306991,0.47501369004385297,0.19747675883792196,0.08913043329510978,0.08748385049548851,-0.19914931753851914,-0.4315859217218861,-0.5052987432120998,-0.39223874330563835,-0.5846609009173639,-0.546360636999567,-0.6546891243614686,-0.693190811193138,-0.7217235074191273,-0.6421297337592475,-0.5780422092926875,-0.8336784919750982,-0.9798033751070917,-1.2486897540891178,-1.5484797829109014,-1.8214605989636734,-2.149499367948272,-2.3766910363774323,-2.6548003556032795,-2.783200201387002,-2.7624394803448493,-2.8046513578673955,-2.828809440092349,-2.673543471616521,-2.2780067177696592,-2.1152203029036825,-1.5017912881962425,-1.2070913972732158,-0.6246788350615622,-0.13768086017708853,0.21981423044057147,0.5851356365226842,0.7336109443336187,0.9820268504716605,1.130273348706798,1.287077137483369,1.2253520073492314,1.3830474830506378,1.4401854466927426,1.4859126160115392,1.4228084328850499,1.6089293274517151,1.5384112146863917,1.5971180239564344,1.4950577686174857,1.5463848562271827,1.5893010611614709,1.729690025712076,1.621392151806864,1.6328639014174726,1.3434458374356257,1.4618787704314467,1.2132764425920903,1.0733327803540127,0.68852509376776,0.4984474084981584,0.362940306765369,0.261698229477034,0.11561916190891611,-0.08694055235081867,-0.29118677352305056,-0.2097200601338971,-0.3246927881318026,-0.48467437089572024,-0.5366447298447599,-0.4344797487761995,-0.44907365197677224,-0.3618979681930682,-0.33972471088140116,-0.41154257711350434,-0.37652403566522263,-0.47404520615673823,-0.6509659349452458,-0.6830570931843197,-0.7513056406719526,-0.9498161567953354,-0.9493148533389012,-0.862971346154181,-1.0017936195840431,-1.0972093440198212,-1.0299562083681666,-1.06243619430108,-0.9939632752983159,-0.9048343855399976,-0.6811695905250342,-0.5572970382464545,-0.5482057703303275,-0.3443030636599017,0.008627860089622519,-0.0212051220915171,0.11286763035116153,0.11645895115414122,0.3122274204493721,0.27957536608684497,0.24308330426496422,0.28351563221104686,0.21304400516829303,0.19640827612554496,0.14191586829909972,0.3106558665242124,0.416725938161877,0.42830630776596573,0.443588500620942,0.6108505216580717,0.8726816190062856,0.9074195986573812,Unknown
-0.007105325541847575,0.16065848278874428,0.5858478422185723,0.37813363982237147,0.5566228358595253,0.5575770172428997,0.8310346262589008,0.9594366649202738,0.9007487865689008,0.6487617236219867,0.7613520229542,0.782359610225885,0.6282034956942669,0.5219756356295485,0.6707594418963712,0.6240301045759371,0.7302077025387608,0.722860894400316,0.9769555399447355,0.8568056261843509,0.8230539812678366,0.7874121779836807,0.8910112111572517,0.9630960542901463,0.9961137419933678,1.0202302890226171,0.73590203156013,0.9085250409891839,0.633485328769541,0.4712593995233917,0.5405520524836546,0.11836741060698004,-0.029823308226689313,-0.15956391937833886,-0.2552100451136036,-0.25788386087447096,-0.3705505073034703,-0.4384640612512074,-0.5869061674557056,-0.6151400376858598,-0.5940731042836781,-0.585007269755984,-0.6212385292888422,-0.6103804111494417,-0.7061499808118429,-0.8454793308134412,-1.0688250198522804,-1.1573215471521754,-1.5293164784259596,-1.7593895282475727,-2.1358534115320897,-2.4151051444054743,-2.733825651343551,-2.8527764286809445,-2.915010011717997,-2.9408015750601235,-2.7351058219571702,-2.6557798242845676,-2.2973482127552165,-1.9299287596874137,-1.544146626454625,-1.1033364282957654,-0.6103575607071654,-0.3093296387861099,0.22385415272229808,0.43368340107868286,0.7870080293669884,0.9629717160523505,1.240665293896439,1.2687125578943172,1.4640448253211165,1.4091909049676867,1.4681679071845861,1.3860300884130097,1.5365236962350024,1.577962659945333,1.4518575942354717,1.4653085468652889,1.7429577177388762,1.618220370331738,1.6386390454392865,1.7000420914909757,1.5615918038497403,1.4426394451947049,1.3822481317396538,1.37502307732817,1.0422472200349482,0.991957519789238,0.7668765891670265,0.6524556586907482,0.4748192549874937,0.33132199192588685,0.06437742208945571,-0.04177118853011209,-0.30715113731415955,-0.3655073869788143,-0.25788356756206093,-0.4767559126656317,-0.2165834160231427,-0.4305920829722889,-0.37591773838228315,-0.3285370925458116,-0.4416529909031288,-0.34321221406366054,-0.3348504313185322,-0.5195246513825897,-0.6131688706404409,-0.5592331725464252,-0.8357518197588152,-0.9237534763320158,-0.8930756515853067,-1.000658414498405,-1.0303829590539193,-1.234805491822833,-1.227217803920644,-1.0760710498966626,-0.9809912828701343,-0.8949620266112858,-0.6847048560131473,-0.6150497125907007,-0.44202919888638587,-0.19031988866171567,-0.20919357099669933,0.011081625295923632,0.11941902380199866,0.11603319947496929,0.21627280898102258,0.23770332246150186,0.19583759315388216,0.13580472503268326,0.16416978571254565,0.2291245237933921,0.2013975578602036,0.15686540123079434,0.4536157700650729,0.40066279119151027,0.48733078453340506,0.4889023407670965,0.8105563751507177,0.9806686731842903,Unknown
-0.07094922369231207,-0.05868491537923768,0.05805426204706707,0.027943252166829163,0.25123600588490635,0.06368812870138009,0.3942495999655371,0.2643014710930451,0.2778750127807434,0.26069395939734163,0.38764090499012427,0.3498819619163696,0.42198971917035744,0.4985156284228872,0.5205500884192106,0.6058473373468739,0.5941398122944669,0.524632434115297,0.48846076728975085,0.7282889835237878,0.7850239427185083,0.9711705084268052,0.8476300078489755,0.912059524059437,0.9518890549826481,0.9193700857507601,0.9149688125364158,0.7312770338269905,0.6464850966155197,0.6060826971645591,0.3333745907552871,0.36184156384314453,0.16198970361460222,0.1043986662277167,-0.03934575654537006,-0.1381800753462106,0.07036970863985323,0.041860727154243015,0.19628792343975326,0.23035125560293698,0.31966974802686254,0.21203649187206577,0.43466786837337856,0.3928088288620776,0.2945316290400673,0.27762944389759064,0.27586044466735493,0.08327418706027674,-0.12824026571959313,-0.18420522036685297,-0.34105489820188284,-0.5906983878832489,-0.7383226088503962,-1.1692503179509695,-1.3672724695109402,-1.5215069147167248,-1.4471186513219891,-1.554313070014245,-1.2461386920380695,-1.2057192447622587,-1.0041130244104073,-0.6266586445644693,-0.5293456611585068,-0.518933678618073,-0.5724516877806405,-0.27629416940823326,-0.44426127997328746,-0.41234443481017996,-0.36850622343456046,-0.6088141686303709,-0.5112597726934065,-0.4697753350769709,-0.45286246901259936,-0.5604525793808947,-0.4161956033189681,-0.4187736216839909,-0.2603622551894152,-0.27956587502581104,-0.34142864101035175,-0.2916573400418332,-0.14840610504322482,-0.16001853046008263,-0.24730692410264496,0.07098933356733425,-0.1406343774416622,0.16423305646771993,0.018655930745736377,-0.057276368549434506,-0.19585000485668455,0.04726536030414839,-0.15421251813091688,-0.02199024503985902,0.08075684794288226,-0.18912108547618667,-0.06200658466335717,-0.20591978351850318,-0.06587360899456456,-0.16140807355175898,-0.17241462601489452,-0.07243904917812513,-0.11123102028702903,-0.2123981253274791,0.013034619443046014,-0.23055361756339643,-0.059951813039510624,-0.11942649130988864,-0.14208136478053185,-0.08183279712132821,0.0379865910037923,0.1035327196020358,0.1941584746056492,0.2613919027597305,0.19912807959905127,0.17460190069784914,0.3256928653918782,0.22513530983617738,0.17748074963888438,0.41004134078735044,0.4694794726492487,0.3252192133668432,0.5738815632378153,0.48827378875135585,0.49943688827721866,0.4448715961780073,0.58739793265104,0.40212620703538576,0.5131457085663619,0.4960630947289809,0.4624737829109846,0.6467416251092708,0.6135136088728717,0.6570940159340186,0.5749046958035425,0.6783635354802081,0.606047214910365,0.5603519987855032,0.5431956121338866,0.42980577359147687,0.6736877539243293,0.6547063232920305,Supraventricular
-0.0795109432103172,0.06821666075880124,0.4894249409728213,0.37398201293791494,0.7271418501467708,0.8056357941558161,0.8648422259098906,0.8577676609901019,0.8372639251708415,0.7664360957708974,0.8317552980598377,0.6698476701002825,0.5264568169293371,0.5770084559071993,0.5588971711139512,0.6495350173913514,0.6455167060765268,0.5164002898132752,0.5410806263058738,0.80853075236983,0.7352249019874139,0.9382757013810102,0.8813956756808125,0.8659652368753237,1.1349714331935616,0.9099468090287376,0.946632728088739,0.6052221149616034,0.699383153416054,0.44832228840873994,0.4580522961482933,0.17773360347557482,-0.02418747781950939,-0.18613003995404004,-0.18663571514741942,-0.48935730932494115,-0.5317824397981383,-0.45613413735528907,-0.5412633117982273,-0.5081931492804955,-0.6322636364347911,-0.4976345260317199,-0.6721176334040332,-0.6084347187339634,-0.7952785901237429,-0.9472202328378436,-1.0429335544539986,-1.2163645898186106,-1.6263882226874409,-1.747625204389233,-2.109735001265946,-2.3022197500612354,-2.619234599625952,-2.746306247130898,-2.8635626466023916,-2.8989719748797897,-2.8281053833945093,-2.523205469736774,-2.3243158214673874,-2.0307534775856944,-1.6285584115503466,-1.0328286266196158,-0.6125828921211718,-0.11801388238772212,0.2790066333525282,0.5181817857854865,0.694226921368416,1.0097907371654469,1.213162307476542,1.1377856105469701,1.30277164161688,1.1642685287542973,1.474340413222712,1.5861335184780532,1.5490430337937873,1.380517434880462,1.453806769299174,1.5750796280968058,1.6390708349992815,1.7204225970312723,1.6379370723708893,1.4873540968977974,1.541880599838509,1.4748516674325574,1.4354394305981313,1.3579757370791863,1.0375259436272672,1.0223770207709162,0.6872867873481814,0.6183852581547543,0.5394421130008492,0.23734539234001928,-0.06615103026727387,-0.02521788648001011,-0.2947957755563362,-0.19719970394867742,-0.4201242597460523,-0.49209927490849814,-0.2613399190191771,-0.39486355525451305,-0.40647103163737147,-0.3536215474070106,-0.47186016914801604,-0.361739027709269,-0.37965524542075274,-0.6373851437505939,-0.4666351846702007,-0.7032423536295654,-0.7666975949201889,-0.9050242005365684,-0.8769858625367326,-1.045143183404306,-1.117711521561087,-1.153270501535522,-1.1237487443476366,-1.0384898003808585,-0.9621328048022514,-0.9048181044730148,-0.715810254489229,-0.5898176579662138,-0.6258497980948298,-0.43095377104012705,-0.06544689678561903,-0.0059511760850736155,0.07386150438714036,0.10624814886299155,0.2765022530422579,0.21213673125769367,0.0636633292524961,0.06947472475881478,0.2507267900311928,0.1574547417761515,0.14223664302911604,0.2594968017653818,0.35068021527652143,0.49214640437238294,0.49330107322105254,0.6641907551877893,0.6138591351077524,0.9566118327813418,Unknown
0.02790010486747584,0.12104163159150165,0.22944125114704625,0.26807384318932026,0.14712628660871419,0.3605268131732469,0.4191761081634199,0.5144814393047654,0.5069740219749415,0.4922998912450101,0.5343245558906436,0.6391438554673029,0.589662381350657,0.6747914824888391,0.708866621962553,0.7492127190338569,0.9780622259190154,0.7250079589364687,0.5925411106439566,0.8462680015302914,0.75910494808282,0.9228009039112062,0.8254134491471085,0.8543281245387213,0.7480517925572624,0.8661591412220344,0.9638444721240976,0.9220243328178799,0.8413044519515702,0.6862509004207594,0.7627332624002485,0.6751704368065032,0.6540847225903578,0.47214007329711594,0.3865378881544375,0.20321290318250254,0.0842895681541968,0.06975008774698647,-0.039450342909319695,-0.1243629625282154,-0.21778474004948017,-0.47516166181614206,-0.3461351617440047,-0.4300196274048248,-0.6336552735369687,-0.650048040588823,-0.858838590399266,-1.0037526176674436,-1.2640831507386177,-1.432933279375455,-1.7990849647778364,-1.9416463385216642,-2.0073795110567256,-2.348073373818153,-2.548696595715138,-2.6583303869077493,-2.7362494641977495,-2.6781033448850473,-2.7421936354317897,-2.5529158838566945,-2.471892318363559,-2.3701619355777366,-2.1700582672369166,-1.9200680420888716,-1.648233614449029,-1.202667205899316,-0.9014694468205858,-0.6435610741039871,-0.3039003621305611,0.022004601858661987,0.19767804208732814,0.298590452937517,0.5060347848050177,0.588234511384193,0.8502833991262956,1.0140038525829753,0.8878876829195838,1.136018164244592,1.087423333259053,1.1118399352231239,1.3577547061467652,1.3557710823285278,1.2786778383153994,1.2035566480609745,1.193123735922837,1.131549367470193,1.2994531549775923,1.2549134196786733,1.1230847022576307,1.0224632613324152,0.8793158999094867,0.9243300767633987,0.9074458288119592,0.8174180585099277,0.9473380682354448,0.9526596369872096,0.7555300747334949,0.8123996627392225,0.7135353710280732,0.5861516091480212,0.6925481969555101,0.6754060165837436,0.5404845735777574,0.40416423891010034,0.4451295987557633,0.2979552528633134,0.32470931502146005,0.30545814724727816,0.06813330914690989,0.09866846268403412,-0.040009296030227154,0.007738298491500525,-0.15011635863146844,-0.09888168782456244,-0.08681217476901074,-0.41217554064421136,-0.38275906438225626,-0.3697447046483416,-0.5356066061146738,-0.5188051869315218,-0.646635537074703,-0.7820718373364739,-0.6351598178896201,-0.6654186537110628,-0.8151226691037489,-0.8003642649120853,-0.8007638731928997,-0.7401863688497612,-0.7195979370831204,-0.7547840860260895,-0.8753446673888433,-0.7971901993812733,-0.7683754701838553,-0.749424188436403,-0.6184443052612392,-0.5553512951164532,-0.5411422433731612,-0.4606646081673299,-0.5176294547533531,-0.5091840064380454,Fusion
-0.13380053270764794,-0.03673234491980371,0.13953394915501843,0.06527473500905802,0.17296470077229378,0.20718804440002286,0.2784550089066353,0.18841212868263396,0.06818253163410598,0.33566443018171627,0.20956692287583759,0.4410380865124485,0.39457067043634203,0.4074872714007787,0.5222497792288459,0.3673109232870264,0.5350959751841894,0.6365637873833994,0.6750714159515244,0.6722998488508833,0.72868819719477,0.9405554903443638,0.9299109901899903,0.8289662842384179,0.9975918180632242,0.9387039174088603,0.8865244805276857,0.838860989656183,0.6329047154777062,0.7489486844928035,0.5834205200565892,0.3846178054779977,0.23424487455158763,0.07130359944985043,-0.0636369608838858,-0.014181590590022698,-0.09813138326432555,0.047315095149095494,0.13504842116695578,0.24648462444115493,0.35785013414963224,0.3531831195975509,0.3879049018210359,0.16731889038876796,0.3328719237804685,0.2605938054707871,0.22538997161224553,0.07070782400131033,0.09048019481366505,-0.1359096654911623,-0.41283124746953265,-0.6335683768556386,-0.7715060177049277,-1.0992812570885069,-1.3009865319159253,-1.4526801990065112,-1.4005274987415166,-1.3936439721825156,-1.4006098870506853,-1.2091501650237977,-0.9418994313620365,-0.819719998490883,-0.8007945424540965,-0.5880728422902315,-0.48985044041337733,-0.469448096529974,-0.3708945762147524,-0.6109140819387544,-0.5032501632344463,-0.3881295357491615,-0.5134697170637371,-0.561240628613099,-0.5177760529122708,-0.42046744993688656,-0.4625749013000072,-0.47946957869478,-0.35520526424695953,-0.3295997320867398,-0.42096803475811,-0.26838890540242405,-0.3335246584265986,-0.0891011669895861,-0.03912047676541096,-0.11952781339451429,0.023752047237738605,-0.09458164769612677,-0.026771144163533735,-0.053224209024204966,-0.008462370065394876,-0.009576188087250245,-0.030400716383635774,-0.0577885066981581,-0.06375076916176807,0.002324462096754118,-0.28192108320935183,0.012681900452141653,-0.1845877779020699,-0.1729062634374832,-0.06454543475623242,-0.12048699241244706,-0.11845290608336151,-0.048372533910044244,-0.14311504980519402,-0.03416625721948194,-0.18284646014304712,-0.020195378588662473,0.021841949226503718,0.10058567626794293,0.0985523228737914,0.09191335323735984,0.08403514782507307,0.11700961986175061,0.1512906068927631,0.106227037396356,0.382045873865665,0.3542006341902273,0.32548994043560403,0.4001154024074002,0.4238107334932345,0.31152594553254853,0.4679558114403233,0.5432092821559475,0.4104883535528891,0.3635104297658998,0.4130514309980027,0.5163690492994631,0.4427487714810621,0.5409557414858631,0.5148112056102251,0.5776386999292216,0.545449525591861,0.5898402964192797,0.64536994134056,0.5229124676392343,0.6223829585681435,0.5299434971317168,0.5938465398512885,0.581889623940901,0.6089844247526036,0.5854040942634234,Supraventricular
0.03639361590983866,0.10183602968098265,0.061466116017626284,0.1211785276306445,0.20000358365807908,0.14454478999571155,0.34034245508768873,0.3107859679517668,0.21325058007454983,0.5752494370142978,0.4847659539166678,0.5266690232155876,0.4801879818159233,0.594825139460317,0.6581611611920714,0.5129773032387944,0.7074258983604884,0.6052163000986561,0.6200288868792507,0.6885173150151196,0.9662408192933158,0.9023860523197793,0.879803046939787,1.0552234999469348,0.8748157339077762,0.8831903122838202,0.8920714940897602,1.0970559013777184,0.9793987152455241,0.7919005390874055,0.7373625746634684,0.7439789033640538,0.5568443577529142,0.5604768336679089,0.4253491662980684,0.4326416939124757,0.4391634030713688,0.4496970334274982,0.11959437876689066,0.22287346276634531,0.15176960923359412,-0.008691864306502565,-0.1386034111968101,-0.25585347203985886,-0.4921967881692961,-0.437181529653435,-0.7363614833503496,-1.0031460736088258,-1.05347981801748,-1.2734360805195797,-1.4517575571331545,-1.5875070107542424,-1.9251356198160576,-2.1195165066908506,-2.256635038626098,-2.3343068267485507,-2.406702336319598,-2.370257346435204,-2.3349585373981854,-2.2618690670911383,-1.9094357079245392,-1.7847749448292032,-1.879273985333346,-1.5357010826888629,-1.4007526026554333,-1.2271070900952623,-1.2095721234159174,-1.1085578502526783,-0.8440502935628422,-0.7576125044525945,-0.6671951352498484,-0.5390307834479087,-0.37534728836018555,-0.2535484253304554,-0.3023469786277333,-0.19387301357564446,-0.010153294985523387,0.17435053621816726,0.15374195465008572,0.26993843904644665,0.22753914353046742,0.22801206583500172,0.643117438044845,0.521378175217173,0.4458736480372436,0.37206262260737916,0.6650281185674095,0.4717402511986042,0.4640988964813841,0.47194726696902944,0.5293444023880686,0.5600702800576739,0.4787245966260023,0.41667037840837795,0.6868347382983198,0.47079801778766794,0.5223218590818105,0.4163189151191345,0.600350097394163,0.660744358976235,0.5248328959935633,0.4665734915506726,0.602542211057975,0.8025020423603887,0.6151608872264974,0.8820539217750496,0.6446740336496918,0.550470301017878,0.6591991489848147,0.5503943931188837,0.6390586372542085,0.7201160833156881,0.6417366524831045,0.752877101402655,0.6043046633021129,0.5068716782646672,0.6137830149730524,0.5626956558064768,0.542280867095798,0.4090546184550503,0.4964376081709037,0.5477299196955142,0.29081214656180254,0.20036610371601432,0.1850626619996283,0.26009125563163593,0.08619198647302559,0.19222036636051276,0.14505960343765129,0.0957401289641139,0.2229414128948266,-0.18404251871257193,-0.2218085446745776,-0.032919169894288905,-0.14187254490679554,-0.14097812551616595,-0.44318101770863716,-0.43430836882933743,-0.29115483765324074,-0.42481887876141056,Ventricular
-0.0693892441498298,-0.007042837138863334,-0.10274335154957234,0.1383930122936265,0.1827676698118719,0.1801597354576555,0.006522852622625502,0.20625022845674162,0.04726375223373111,0.210414550647827,0.24905907455151052,0.2876721432856585,0.34040565200336625,0.33744555123171965,0.22780018996588194,0.480180503137505,0.5019314087175027,0.47972440541695144,0.4809746253826863,0.7763203941975241,0.7858676557746689,0.7627938607458168,0.6550350649321223,0.4959336057958662,0.7353563459633334,0.673669766250047,0.5824452138073412,0.6723450863795662,0.6246477713438643,0.5510713340339447,0.5256927317598576,0.5177685142775152,0.5625561167583317,0.4364149414125064,0.5372084459141676,0.4280067138714403,0.6069162961936062,0.5403378183110898,0.43970416407001545,0.4973080410511244,0.41770210555162646,0.6004961864240337,0.6031387321107542,0.5210079783976684,0.5803247555116229,0.4558512833735276,0.4876342608652053,0.49715665667972403,0.3521327667685551,0.2795907748895744,0.22378244996578295,0.021413054033755863,-0.3184673034051267,-0.6813780725756364,-0.7427724140661175,-1.0408459551143552,-0.9828520385048458,-0.8864545210753352,-0.6877700147058644,-0.36553149384324923,-0.14934721616237162,-0.03712127062808559,0.07293808572483784,0.12695040422453407,-0.10754042746078961,0.08994959716483845,-0.06852347375508415,0.09709147972070262,-0.1317202194962639,0.0003259526393411243,0.03799541644016094,-0.1150073215988544,0.032807560203603786,-0.020512256817366716,-0.04540453862018137,-0.03229271278258523,-0.12608109450868507,-0.09090927027336404,-0.10412877544761273,-0.10375698562228053,-0.15029430328487564,-0.18594451350054864,-0.10030639123045998,-0.0892226993219237,-0.10018850816901509,0.04324017945812626,-0.1042271472914693,-0.01313624670422864,0.10001429080216409,0.07942263277120346,0.09698821127170083,-0.061975776283512675,0.026344256416895084,-0.14981340329235582,-0.12088295982704281,-0.15168388909248065,-0.22425845434574188,-0.24925629139727362,-0.30139150824163363,-0.3802079120690562,-0.26973532529985234,-0.38556948548493347,-0.38314679727953227,-0.4097747398545804,-0.43745541705307467,-0.4489163062577464,-0.49117456977404467,-0.3599826073246902,-0.41606713438340337,-0.4761237563381518,-0.5116212955591215,-0.48156905691975355,-0.4330962379111427,-0.3394263937107469,-0.560841229075898,-0.38859648241926154,-0.34053820812344787,-0.5379135820900515,-0.4208377177999289,-0.4780004619865378,-0.34405972350197384,-0.3920436222483432,-0.3579083590744232,-0.36378817264973434,-0.25601817986697806,-0.27739386938411975,-0.25872266336761407,-0.24526063754367294,-0.1926971754844492,-0.23935291798736225,-0.06178569143425944,-0.2756795444044725,-0.29365633090493615,-0.27864633956671,-0.2784143244656953,-0.03606016349811057,-0.023487117478314348,0.051480897188239796,-0.10712474706840394,0.05963691638879887,Normal
0.06869292704342213,-0.035072365729714595,0.08050328089063877,-0.0056891648690445135,0.17498216724892957,0.3197000361556379,0.05052393574460329,0.1819485706362461,0.3392837132235903,0.5394070748208768,0.38213239048032166,0.3078689182476201,0.3860655773833315,0.33302150383066176,0.5314158797142625,0.5903468426424714,0.6636149032228332,0.5743277909460411,0.5902419013529132,0.831003566016927,0.8774526978738828,0.7380661818365748,0.8268520653308906,0.9452619141207038,0.8695360522761784,0.8808289893029005,0.7299249895229487,0.706948016869709,0.717279529564535,0.5726254595538416,0.4154586080713132,0.33987641013512615,0.1445529918601199,0.0808670616525654,0.06125931901852441,-0.08104671400610736,-0.06858549069819334,0.12115505807096577,0.18594108531193543,0.279510683139169,0.08089353171339794,0.28505173015421137,0.2866803942257286,0.25646758635326083,0.3803260997981573,0.2111126471635145,0.08442074322220959,0.13272765106814294,-0.0022029541416560892,-0.22973828912116567,-0.2718159221540162,-0.5456325888001754,-0.8015152576599973,-1.0537408144456564,-1.213441653763536,-1.449295646899657,-1.5807424467934323,-1.4488079869995114,-1.4380890909246342,-1.2160530468476527,-0.8127387731652213,-0.8563234127848319,-0.7218679947589391,-0.4749009658636319,-0.3985116974926271,-0.570752827499637,-0.4086528473126348,-0.47602235316447594,-0.4150147545603757,-0.47599640762633544,-0.5693050020045445,-0.5028379473977934,-0.4132570346427304,-0.30066764604036,-0.41111465755305654,-0.4527469264231434,-0.4881194683137058,-0.37226528211254617,-0.35016363876666,-0.25150945530864327,-0.2343358534226524,-0.14434209684908186,-0.16639268064565155,0.04021543454901974,-0.014739131392319874,-0.09062006230987298,0.0645083916885149,-0.09892190808380712,-0.07486183197679062,-0.07895472886009094,0.07608267492170344,-0.06487395521116286,-0.12422865674352386,-0.08497846737525731,-0.07768556989450484,-0.013857302955859602,-0.27628491379817754,-0.06560886505826072,-0.33627715340230463,-0.0965192159862553,-0.0681918610186149,-0.05081743062406202,-0.08442741290014087,-0.19289572506196956,-0.022241222478921643,-0.13899780366317932,-0.0981992104722686,-0.027599537877084905,0.012633669554442277,0.09481083647272796,0.05381188737990015,0.16968462563354925,0.06712760977600792,0.21316244481839458,0.22077490017239249,0.355412958619557,0.39428764523265825,0.32132371223263195,0.20680758139290412,0.27302238673294726,0.5069152445925437,0.43016106775310675,0.6046523030574567,0.5579419201307605,0.5264285293587997,0.5343604381674375,0.4484177069469143,0.5042110373588995,0.6004905460532542,0.5500957679326774,0.6236849648275651,0.6750577654875635,0.5827961835940587,0.5650336614531994,0.5281712627332913,0.6649145836372081,0.6545867363007905,0.7634044015688695,0.5946868169529912,0.562902849829974,Supraventricular
-0.06538855274814137,0.20585294143592367,0.05301014688599227,0.1676701046204194,0.1844212684989793,0.3228153185905671,0.26756178030342703,0.2380964393148533,0.41603355086702504,0.30403380130378277,0.3957060383922126,0.45979759361075706,0.4976680294357804,0.5405235354039453,0.5652202840568294,0.6393464538988541,0.604750632067622,0.724761576825248,0.6556020372409259,0.6574066057560435,0.7076845041279509,0.8068018476830964,0.9588984032647503,0.9168347248148349,0.9117514602249759,0.9621034557988731,0.8685922429182948,0.810308997918736,0.8308957518590652,0.7732581033191055,0.9846395685415921,0.8750642362674768,0.8004447697635501,0.47742614649425175,0.6451860283209319,0.3811603043381752,0.5055103841719281,0.3453538768362729,0.16541840620333387,0.3072765451212611,0.22672756277985656,-0.07501919808895031,-0.065144333126353,-0.36331146201947406,-0.3755607969552625,-0.530532465072671,-0.7079337163480323,-0.7407053746717196,-1.186177583314883,-1.3164236013914916,-1.4591298012145608,-1.8381252486126198,-1.9990322740084951,-2.0063514881639164,-2.117780827330531,-2.3454242067241697,-2.279080610012459,-2.2110024708513896,-2.3098208717365907,-2.115432465654941,-2.082197117768048,-2.003880907521783,-1.7299540994326201,-1.5806851226532785,-1.4696859788812855,-1.2658437601372516,-1.1116378621643441,-0.9384724261392318,-0.7564788252209775,-0.6447743614196434,-0.6301648759947772,-0.5662391027797754,-0.3161347672472575,-0.3320314254508085,-0.2716260953828893,-0.10926073446881397,-0.16821717002860975,0.038940302005113045,0.127853600756729,0.19517959965216275,0.36702603808000495,0.4898595259845433,0.5934603353484017,0.45954618328366487,0.5047034579611102,0.48908960043655,0.5924160122752249,0.39787268158298505,0.5085877075822252,0.5526052754297847,0.4685099468990056,0.47465936777555107,0.5820109345409985,0.4960095178622465,0.5985960334552088,0.6411076110854083,0.5639187030559867,0.5131200687222784,0.6805453233119083,0.37129621918110567,0.46951244289792365,0.6754286726380078,0.8310259601751324,0.7054134037695421,0.6811913966949054,0.6421146735133665,0.7340266381979335,0.7890930089420038,0.7598974298502701,0.7050950716248477,0.7792735293883643,0.713945757534322,0.719732312887057,0.7424493210457513,0.5724593016325739,0.6244165269920245,0.6110676789033522,0.47850731887484943,0.45699205465662485,0.46085893673270445,0.5583459187261256,0.4209645225127695,0.40633806835881797,0.37786544419357054,0.3590897932402738,0.3024785728975087,0.22020515583962205,0.15502958034645514,0.20409299430280214,0.02691763264335619,0.12463032180616221,-0.08045690827489346,-0.10791474350984309,-0.07853976548617321,0.004740815266883247,-0.3876895573914989,-0.21062526226551942,-0.2877110836032618,-0.40572019617830435,-0.3827155098757236,Ventricular
0.09872950305718578,0.02350983581911529,0.038323968096915496,-0.050904189388148405,0.0885425282265124,0.11206801874209893,0.1437075681035534,0.26676635234307255,0.2821087446443799,0.19501158464535928,0.2312599344093259,0.2622496785876222,0.5427938706182955,0.5505875853550345,0.39882141095575097,0.3485308956713993,0.561356065842606,0.6044890584713198,0.6801972731416734,0.7707161965786985,0.8031232066337273,0.7277809606979396,0.8804205441765728,0.9504060258371496,0.8317948046811244,0.9022939535722281,0.8032308517936075,0.9564273561523575,0.618448232207554,0.7210034785313808,0.3736348810167113,0.5084521458819105,0.12343242561330639,0.09379532305664481,-0.14847570836085539,-0.1649439396971766,0.0373209234090978,0.1175121837351621,0.14640793071514283,0.2749566319818289,0.3661404369426162,0.2661820007402362,0.22050267331153,0.3214180259357504,0.2498627582220884,0.28567899480380926,0.2394942648162886,0.058502140143571205,0.05473485089088382,-0.1036130323400827,-0.2953806512631405,-0.620726594678227,-0.7813341282504117,-1.0508579443834098,-1.249394447493073,-1.3026401095354359,-1.4551960037325549,-1.4807873476881355,-1.3944755663606914,-1.0408535902579958,-0.91368022154721,-0.6346749062981499,-0.7903162147501988,-0.4556173770157098,-0.48845962257087533,-0.46572964553079566,-0.4897401829903053,-0.3601852318168264,-0.39237803078081906,-0.5431731141103315,-0.4468630711128721,-0.40784020941983595,-0.44907920387544265,-0.3675368080131663,-0.4655056997352446,-0.6018214678474328,-0.3788102622500305,-0.34513907659386117,-0.29499325829197637,-0.18741345324831019,-0.3857629069325204,-0.2017871378987311,-0.21142887588787068,-0.1931563643053668,-0.06722880197346953,0.022061255418220883,0.008495265368097648,-0.06144285917528702,-0.018125118090679928,0.059515918334648435,0.024462668323421012,-0.09479541076744688,-0.12333347831202686,-0.23542550910569726,-0.15540392431578676,-0.2798549287649535,0.008840003054812418,-0.2350833404974802,-0.08217108576155271,-0.023573617464783564,-0.14395830289680814,-0.15602414275647195,-0.23572367478170464,-0.14805550857373662,0.046309623138201514,-0.02549710566896329,-0.020835531579195644,0.1138715403967025,0.09762899646750003,0.06372472664776935,0.1267443949635835,0.0818637790137319,0.13202985612164145,0.19355347266682113,0.2871691658214062,0.1745175907603541,0.3112291383952106,0.3037314469868916,0.29149218702687296,0.3602048212534095,0.2313034491138775,0.3810225093222157,0.37676097947395076,0.4638132006740211,0.32363164535444033,0.5393478766875661,0.6130828079250472,0.545332443827567,0.6070917527951257,0.5366841841719189,0.46185284084352984,0.5928540012213382,0.6515989666762416,0.4936061212737489,0.5626576922994024,0.5783543934309457,0.822419325001832,0.6063077704990578,0.42809216334187217,0.39840583762987314,Supraventricular
-0.09644170326936373,0.032267324641350514,-0.058544534548395574,0.14331899350494265,0.3184493125253541,0.12264041627163759,0.19378994801867844,0.2305812068050425,0.3512463479079798,0.33636104885907975,0.4087149032300668,0.3257251359578617,0.43263730399850514,0.16174531642483547,0.5204023366428411,0.4092350245674367,0.5249050158816103,0.6603539378638424,0.5319567275730089,0.7985609090382739,0.757042505458954,0.933345362120939,0.7846697244805885,0.7370771218625415,0.8873992052943512,0.9252635214995387,0.9011282642958499,0.7058947276028803,0.5946237577073228,0.6035416456969674,0.54861542116878,0.40227087363308744,0.3405264579250307,0.048745183424104575,-0.1657319684830861,0.038787864727299094,-0.018883215272011616,0.05783423165767726,0.18862644749425778,0.3167615859721025,0.2807085387982822,0.41504028051042685,0.3765904891882179,0.27006770552733406,0.27737977532038416,0.3039287982596101,0.13894599470974286,0.18395093156002987,0.011060847521344907,-0.12541464328820193,-0.2380056316902499,-0.5595778543112837,-0.8380149531234727,-1.099065203886075,-1.311381775856057,-1.4118792454462292,-1.3723521001972747,-1.4811724705950715,-1.3606357749744113,-1.0282852914416594,-0.9875565908187302,-0.7509890760555517,-0.6752958366394304,-0.6628295007071419,-0.45171062027386816,-0.3482345344182179,-0.433519943921836,-0.550683597988136,-0.4327352783194438,-0.5122586631988078,-0.6696171928065388,-0.4708000536121568,-0.42190531043847257,-0.3619475937647681,-0.3017542370271387,-0.3693979998081541,-0.3190622744230419,-0.4623543741525129,-0.19014211390462438,-0.17458296656000222,-0.2589350854663777,-0.12817566352909082,-0.09113079657185776,0.021103147588143467,-0.07353350378122885,-0.09378311802023409,-0.05478033259354259,0.06530261329348322,-0.1600770229385692,-0.2546416723752011,0.04135224927605752,-0.028589372576892563,-0.07245670135465443,-0.20255050649685397,-0.2578421987968207,-0.191754141009727,-0.12758996398650224,-0.2135343449695198,-0.09888153816724833,-0.24534686145776619,-0.20280202143181392,-0.09176691787076988,-0.1600876556160633,-0.13387549566764226,-0.1334866569832256,-0.11991257530297267,0.005230800135794168,0.047598187234219526,0.06009762759514538,0.026259890025875074,0.09332457611662592,0.27098376468193064,0.063226437662763,0.36092866544180496,0.2505490685209148,0.25989651737743746,0.3814001790655265,0.16953913426726727,0.47399209047054935,0.5395822115286124,0.5040535395546233,0.27344677373162873,0.5258533538640658,0.6178863687235769,0.6294347342104154,0.41142931742869715,0.6216374907407387,0.6983617858282907,0.5695456604144572,0.4614865308608407,0.6525147381635944,0.677027333010626,0.586032043371352,0.5042992948532555,0.6784256411280423,0.5366189962535585,0.626094451502146,0.7130913833225021,0.44783420189481277,0.6432550296147902,Supraventricular
-0.012196072075497333,-0.022728770033750553,0.10628730773736539,0.06408170182698976,-0.015428596871794154,-0.042018452756791475,0.0446318139202697,0.34911912877574003,0.23889952492627303,0.2208603138406887,0.21811999397794238,0.24306605064120246,0.3910104080610964,0.2988405801641869,0.43094818383890954,0.4094965864102149,0.6493352879740879,0.6113170693329144,0.706170964248305,0.6063658373485163,0.772014501716808,0.6813110741296452,0.7179418437455264,0.8280970636223444,0.590760007388001,0.660594642846073,0.6474586192146135,0.623960932307801,0.520745209179359,0.7038848230401232,0.4192935075029477,0.6304019279601383,0.6053661753788832,0.6570841523042402,0.37607162827473906,0.4321474703978307,0.6193473271863588,0.34760440021464634,0.36624571291789676,0.4517957521918251,0.5013645190436512,0.607545165299872,0.45848738015862883,0.4166509519474775,0.48070342511497083,0.48127532612727963,0.4618524412648432,0.38493979829083597,0.19618536529637645,0.2004931871756802,0.26271160867286814,-0.0153412681757956,-0.283832215317607,-0.41697823900400094,-0.8191394996478695,-0.8911206714733814,-0.8925499792024789,-0.8518217647628747,-0.6342176039985264,-0.44618205989007376,-0.34430902324366247,-0.0633022976623377,-0.08393061568113598,0.08770997772278015,0.20213683776889307,0.06665192682218479,-0.01852542645916265,0.046201296610580936,-0.03082925635697064,0.06232175567791463,-0.017665265443234286,0.11119437439961644,0.04890945101673322,-0.07328847077201868,-0.018621788849366896,-0.11959175251645542,-0.09462853667413916,-0.13197751508193373,-0.04361642443837196,0.011885992083777303,-0.032639960577817984,-0.01278701621990369,0.0004849516915563651,-0.013766392959605543,-0.13239292190448532,0.1111535984666443,0.13390224827285374,-0.0181258822579988,-0.02294871934003064,0.05568521679646928,0.04374972727859861,-0.03086901559381601,-0.1364008460883298,-0.040319676274123126,-0.054698120307675964,-0.07907773238696142,-0.15024781558156444,-0.24200038421946438,-0.18240127088134317,-0.29634852737564704,-0.37544224692949335,-0.3854257558186496,-0.5389392433909137,-0.4374562354842919,-0.3867586094719029,-0.42915802817112225,-0.3450880583330681,-0.49449234992713553,-0.4379416622699668,-0.4141751048553716,-0.28842838001884374,-0.4604821502120159,-0.5500409335300042,-0.3915873008452293,-0.30173923702521777,-0.46718235992873347,-0.3633895759772253,-0.3206778600793193,-0.3249804041438147,-0.38279434234200843,-0.43437999309318825,-0.3698779115009859,-0.3108091974138027,-0.25824590614011805,-0.2869156506485164,-0.326109143555217,-0.23276643199880498,-0.1893035781307636,-0.20812764140746173,-0.2852901387619224,-0.21236015721490875,-0.10107030219399359,-0.2662242797509221,-0.30140613586931686,0.00859935308922119,-0.049000528281980364,-0.019058133219317097,-0.13128658004397228,0.03640855518536086,0.022019895014627956,Normal
-0.10696965822579749,0.1722423801598766,0.3337915199284361,0.35288574067896494,0.686049475725057,0.7920129454041435,0.7543731040660596,0.8615670326166324,0.8927471195164236,0.7142249542880273,0.6211662363856676,0.7306780777436533,0.6882270528506973,0.7458290986959304,0.585960488786545,0.6331382180238039,0.5800628284760619,0.5898915716264198,0.7867599215266385,0.8381195765337898,0.7311151234033185,0.9099802325689429,0.8995216436039364,1.0239282193669863,0.9474643711558345,0.9305141627688231,0.9398768739258277,0.8291241543104712,0.5798117471843364,0.5455570926922556,0.4016916941428357,0.16045363672812876,0.0998625177086358,-0.04602157179136404,-0.35312414955444127,-0.4138074936855563,-0.4444933289451515,-0.5091422301857598,-0.597439247379651,-0.5325613362848359,-0.6086061592678941,-0.6289039312728888,-0.5830699165589591,-0.5169081779832303,-0.7293381561657315,-0.8557992026412723,-1.0754675607689848,-1.253382216175685,-1.6078461587908035,-1.7713951029238562,-2.1075635326617252,-2.375754341884801,-2.550171643200163,-2.7747142950500283,-2.8063765189070082,-2.8095856632567777,-2.8323412934326995,-2.5567668631668536,-2.293332999609233,-1.8986281987014066,-1.5085461047482922,-1.1195445381662659,-0.617472004942692,-0.262788669973641,0.2883486618183875,0.5474167827004289,0.9888955689595539,0.952839927170336,1.2045571748726784,1.3995161743696927,1.3525396377666503,1.3946436982085235,1.4046783415480426,1.3948352259164276,1.5616873497478034,1.5560354113392956,1.6262311815417123,1.656371373092384,1.472147330147036,1.6195983959843514,1.6265162410791982,1.6402862504278535,1.488632779403833,1.5437592893053627,1.3950061585926166,1.256291488645312,1.1102214463244882,0.9063546700215925,0.8562861301197447,0.4097225975784363,0.4620293064101608,0.22639077812389588,0.028201989051589403,-0.026162576963336556,-0.27099269447982216,-0.35602406079102283,-0.4480125610784891,-0.4975786023437536,-0.4034341921706796,-0.23260092932955928,-0.4191463929607276,-0.34143747467211494,-0.47878039286509444,-0.3769918964094145,-0.39828316292496785,-0.41537096960823794,-0.6515218227249562,-0.5722646626411545,-0.8582476971268603,-0.677951122302852,-0.9795228630547803,-0.8945082366065308,-0.9981495385048736,-1.2094390091360128,-1.25017909084281,-1.0937051249585632,-1.0922199516252162,-0.7917091755956527,-0.6351818538576608,-0.6121083792991089,-0.4143030701379783,-0.2881567035173809,-0.29308642607136326,0.1270204844986858,-0.0025836912871468193,0.12012849056690861,0.3155077229733222,0.10760022848482878,0.24135667521987106,0.18682627872705498,0.2633477737467131,0.21454599221842718,0.33458804778157036,0.3542007108674836,0.42373124835647413,0.47633480621158086,0.5663520853427697,0.5017542660363852,0.9113730394857723,0.7978832809023669,Unknown
-0.04358596849771395,0.21236470836606666,0.36610771414570975,0.35486775470046916,0.5717151845441641,0.8020325400637243,0.7347118948032614,0.9253899231531006,0.7387630134744719,0.9288510013550462,0.7206077189973196,0.7603213213795363,0.7101769238347644,0.7431412133438499,0.6152648014640633,0.6517763154078677,0.5826190107433826,0.6429970549337037,0.6688571652798974,0.7402544904893563,0.6179949822163595,0.887968245527081,0.9447478291891892,0.8431788082996057,1.0416882009381676,0.8707451079898366,0.8773681665078235,0.8488371905077097,0.6426770376556858,0.5517842541850575,0.39482263866817735,0.2524597436219941,0.0802949379560409,-0.09907536184522907,-0.3115262793721135,-0.2632880234292822,-0.45440515376413787,-0.5687665974366465,-0.696591968444956,-0.5233529215012058,-0.6980807756872536,-0.5833759210646319,-0.6519754131223676,-0.6211759612100584,-0.6201439563866704,-0.9396302763910757,-1.1125809510376563,-1.2016141210459839,-1.3897478645107593,-1.7940688955588526,-2.0660752380948124,-2.4625292407549813,-2.520145133211794,-2.787998977578935,-2.8225792182073346,-2.888913548287884,-2.829146067286055,-2.532907613066013,-2.304775247545511,-2.05309053977716,-1.458013390563852,-0.9706902600760264,-0.6975513415607294,-0.22739814406710995,0.317418389795795,0.4559309964683987,0.6678988529029223,0.9181033239435171,1.1050042268954703,1.338408424711941,1.2969058555920954,1.4519995287129701,1.4594339970028123,1.4669282959513439,1.4896379904860633,1.3331620233449673,1.5795872186773965,1.6577085969438952,1.5405155077315134,1.6995525084787704,1.576800549709543,1.5922543574360768,1.5853831739430242,1.6161814142774102,1.2661082453159627,1.3577182384640878,1.183772460405357,1.038419099273974,0.7968475184992523,0.5853468151408255,0.5799225704375407,0.1759764719781793,0.05501143706586567,0.06893811929898214,-0.13875374711561583,-0.43761805070752824,-0.4544420078838568,-0.31278366314398637,-0.39361421635632643,-0.1877825110206626,-0.36307618409403347,-0.3055937775428943,-0.3332369554363448,-0.2764925434075018,-0.24211701970827026,-0.4478667633075815,-0.42682390684894894,-0.5890678531904995,-0.7337716193632109,-0.8625618391063952,-1.0711465443268011,-0.91456653204529,-1.111511734113131,-1.2308021143033336,-1.188855424329738,-1.190122963829864,-0.975126729345067,-0.7892506976243718,-0.8211930384978782,-0.7034495506543799,-0.6236977820933411,-0.37789361374589153,-0.2356513422787615,0.13536242222145176,-0.030049362050715067,0.20801834758177754,0.24683896696115676,0.232682521856151,0.21335378974882604,0.38456012681364893,0.26213811977419965,0.1179315011146158,0.21248621390847414,0.25841812173257717,0.26585235950522,0.3995184659019119,0.5593594369750199,0.620477424942117,0.7850423846516872,0.9013901862781062,Unknown
-0.11704809499293357,0.1673627387223071,0.39504236775721896,0.5990317522130575,0.6584790535575407,0.8213811747695212,0.8108718295301713,0.775516192139147,0.7064332028397659,0.6923856686532707,0.7443267021464671,0.701808990893402,0.4736936325416964,0.4944491982655932,0.6201369455121171,0.5447440929389602,0.6016484177919836,0.6427844258542162,0.6100308733645601,0.7370225228101451,0.866785217215391,0.935224747759018,0.9645584542724092,1.0957208205372462,1.0932435745941393,0.9341306172686881,0.8103287904549378,0.8758831086519123,0.6011895135091379,0.4770161878760665,0.3598379012035101,0.3192006456611846,0.021632216680280425,0.035734683200083606,-0.0974909163729997,-0.5028834637792216,-0.5417853327475889,-0.4593049540059368,-0.5993786059144733,-0.519330484560644,-0.7181545181989061,-0.6817271657008454,-0.5517160687295216,-0.7260540992482434,-0.8304833592010518,-0.894456589972126,-0.907990016826905,-1.194587077149,-1.5191807261687218,-1.8490233884579574,-2.1139889957322566,-2.3837994610374116,-2.52103567655737,-2.864776881862003,-2.985290665730165,-2.884455390866387,-2.6725809943179755,-2.56988725910788,-2.2708135344152183,-1.9238570112075721,-1.444872294769435,-1.186261751092828,-0.7814616203164779,-0.14631184404024122,0.13530882902128855,0.44509601380026176,0.7384101690513957,0.9940901255734548,1.2300035859493212,1.2993235658055828,1.3060573776364546,1.419909082465133,1.425681070835558,1.3808196562784838,1.3715210370824555,1.635426653132011,1.5774489405486474,1.521812991929627,1.701126355155006,1.6422654270008457,1.6578516517767419,1.6565072690726403,1.573595899354739,1.4974978921587134,1.500416864655556,1.3089619747370111,1.305399024051191,1.058738663422357,0.861665465471571,0.6331209979146295,0.34131302064810576,0.1191160653458905,0.058281547040782804,-0.15885059108281033,-0.10466181886638004,-0.4503337338692601,-0.45336726340408673,-0.36605967998657324,-0.3440463739638936,-0.522282590200566,-0.5032928954634618,-0.46185446254656193,-0.2828740874902938,-0.36814658091388436,-0.3104121039264318,-0.47661759184009145,-0.5659285716731115,-0.594596277746775,-0.6325336979178093,-0.9238047128172013,-0.9768430619768526,-1.0722749816948696,-1.185511273929622,-1.059785511534225,-1.1801952867193937,-1.1093393086622518,-0.991574904109645,-0.8150858337901837,-0.6591273086261318,-0.6962607585840597,-0.3871675700681822,-0.27490298571067495,-0.11525344091556122,-0.10112388371525435,0.18459824064751834,0.20819833827783593,0.15380606912581055,0.10100768620191955,0.22660183685449578,0.2838140480048402,0.12247021214913852,0.026101850162162016,0.23270409970423953,0.21497708472998223,0.21407244400013975,0.34602627103689393,0.5014169002757871,0.5171490035406231,0.891505191449546,0.8946255904231633,Unknown
-0.08169636162743292,0.05132273994742234,0.14351593770625554,-0.045374272699190046,0.141849998540184,0.04154870822311363,0.2606881553348913,0.24701731639953683,0.24242733294817878,0.1785631466622024,0.2871990772878891,0.40775972121685927,0.3946741739305733,0.5265722413268096,0.5572260134680651,0.5934820190547161,0.508091031793167,0.6243318725869083,0.5776251749719498,0.6106115320484063,0.8615351622014421,0.7221742014239548,0.7533809596753795,0.8905157122950125,0.8680608721233929,0.8635599731730582,1.0319056697826583,0.717176470396426,0.7641970602304577,0.6354629682461039,0.5880470161646979,0.30214482122322206,0.19679916412646659,0.08775333308788891,-0.1328459483235529,-0.20138947668266344,-0.036162731548899305,0.14227019374653962,0.09908291763785453,0.19846333113431314,0.3746065956475799,0.3090108762420021,0.3945723059079277,0.5358317136743866,0.2498737090846801,0.2404248987002162,0.22734942736083957,0.23236410388949014,-0.010803974702924275,-0.09760256243678345,-0.32541524833311175,-0.5938824017755859,-0.8773616289478138,-1.14119534916136,-1.0553671472035244,-1.5601470525798717,-1.597121113368264,-1.4126511339368917,-1.2893779239659509,-1.0969802566687445,-1.0122284370221,-0.8503944649668396,-0.650791785784971,-0.4558616049267913,-0.5489873900127107,-0.4253579805885219,-0.4695363189090035,-0.5541093855640558,-0.5439735394970048,-0.3789547297010908,-0.5083634226900673,-0.3648246614568594,-0.46629985554063563,-0.5655901301924813,-0.40412670398695416,-0.4855801454756463,-0.4238952849464162,-0.2689712075187372,-0.4230624623742635,-0.31194099978535406,-0.3162484068806366,-0.2779351075604663,-0.17547154631047823,-0.1651195127083687,-0.08335744385577096,0.017022697878310983,-0.07564930314690298,-0.1238956839086207,0.044830689553677666,-0.07548209346435544,0.11603384882771436,-0.08329350080702261,-0.08481178306248542,-0.2824341601467174,-0.21398971329338026,-0.32332305834270436,-0.13299858625265973,-0.17321762807503302,-0.12047969735214167,-0.10442931602004371,-0.08433666074029605,-0.1660262172218902,-0.12310143185102704,-0.06137213713152813,-0.14558582228389477,-0.12863831177580407,0.10010199100352343,-0.13559145300766876,0.0819260794168718,0.10285151579353859,0.01957828214399658,0.0898815373313635,0.1483658254315121,0.2273911458686177,0.270705182369117,0.2718322650411867,0.3202013225321908,0.38767644126209977,0.4126275828918228,0.513708657731269,0.5004665690252716,0.44305290915863926,0.5159744954471842,0.5201123356898473,0.5191673576200232,0.4545885826510703,0.5533094141782371,0.38949625861187875,0.6529744176688904,0.6057304460202912,0.5734877280610609,0.5590612333605056,0.6495289005609244,0.746558297738533,0.6298822661357443,0.750303533960851,0.6570550506222336,0.5240058752701626,0.6195563899067771,0.6018393569373839,Supraventricular
-0.02713247902749447,0.04596214639979724,0.08082315899933604,0.11737575241562676,0.019856201503818297,0.2581441518321036,0.20907048987863852,0.23389009268979238,0.2773541875636829,0.24850220186396652,0.15046779430872897,0.2517396673125888,0.16555045778741556,0.37129404029238816,0.3712574583309224,0.4341290317513879,0.590442847834135,0.5153744656421334,0.586356566371849,0.6548764830006327,0.5401642327583236,0.6850321757002602,0.5102754648480038,0.6504515250211285,0.7425971361999407,0.6801161490017266,0.5648325736967892,0.5856244393016412,0.4708088032564038,0.5367962227235151,0.7573136811695693,0.6613552024992952,0.512370697332933,0.5178245823291754,0.4247645710006006,0.43751086079292345,0.528966628221803,0.45577612733415224,0.5670943925892564,0.616435229606965,0.5126146787363528,0.4883061358751642,0.3388462833602054,0.5251189034144046,0.364298525976132,0.410266877173054,0.5033193268820323,0.4815593480716661,0.3152716522218191,0.24118922351058789,0.0931444119909374,-0.12613508283999644,-0.3088140843573818,-0.6354821243870941,-0.6740851625376925,-0.8415309323633907,-0.8587283088267609,-0.8928638885453158,-0.7378842749118588,-0.4268854034312477,-0.22723337422477444,-0.08960211441369781,-0.0008211338951345307,0.21132282993059331,0.1262879727803226,0.24678805392158842,0.17671042597304693,0.19262199574836697,-0.0502285890191683,0.062214714747239455,-0.040367404760875844,-0.15865762264231206,0.07555053692698822,-0.08453743246995679,-0.1602786447085489,-0.12129794884332326,-0.16104301730925819,-0.15855861678324212,-0.12266117244096061,0.03571214539059048,-0.14983719447667954,0.04619970881480309,-0.005450779608940248,-0.026165141659495447,0.018599573412486095,-0.023831669979679084,0.09243339044605382,0.04594290706843874,-0.12646616492477714,0.03039243911443649,0.06240255190332743,-0.03783342758167189,-0.026298323824206868,-0.11380441110805786,-0.20902309584680442,-0.2611735739045644,-0.30115667633541016,-0.16678759295286905,-0.46114397071195173,-0.35493480133799904,-0.39950066859994593,-0.3935462481339891,-0.5477762447878114,-0.3905658419707593,-0.5436864425946684,-0.36574822668551915,-0.5164824471786695,-0.48110339867883284,-0.47662480678981556,-0.45805503473098763,-0.47289579048214503,-0.5062322334000376,-0.4390620767653589,-0.42212983067405546,-0.512208198871464,-0.4072690375927192,-0.3353384748736029,-0.3625045688092687,-0.331755628329652,-0.37908535622729905,-0.4533941281221269,-0.42814710443619064,-0.3219061962956602,-0.25548261005527156,-0.09075830136891508,-0.21717075067688252,-0.3708316650905866,-0.3194921893389878,-0.05621506064414028,-0.23554628415699866,-0.19404650365663048,-0.25372931793972925,-0.03037458260542472,-0.09392523749237411,-0.1740153827531254,-0.16941977179231243,-0.04302021774909585,-0.041604728163371595,0.04397512748572799,0.0437574778593348,Normal
0.1620020772594207,0.12790524656197086,0.08952796858256344,0.22692952971233565,0.1766268373364568,0.25659005302648996,0.4374403820875713,0.49912514179978984,0.5368752935731274,0.46310388865409574,0.7937199267839965,0.694039294264782,0.676845058430279,0.7258441342910246,0.6983005376548981,0.7010253788081567,0.9856835636437948,0.7336499896628332,0.7586001029572232,0.7925295015242104,0.7682115151708921,0.8322360481287331,0.8043084789052779,0.8365069297877036,0.8293524753633199,0.8426562292877937,0.738360280548033,0.8264153165419722,0.8168458948934552,0.7626166890203936,0.7024676027301394,0.718010146688724,0.5101793105941552,0.529042221858755,0.5014611689376123,0.18112843350495061,0.15953505175269456,0.050939494085083706,-0.055909852780462906,-0.2756380419890031,-0.1577490668419702,-0.34023135529229,-0.30095258386603196,-0.48549648110026716,-0.49524226359608103,-0.6637259631051174,-0.7847063910639442,-0.963253531095394,-1.2201803618354237,-1.459886428092509,-1.6354809267841708,-1.8623012041972804,-2.154795130648213,-2.2989653062294377,-2.582034617283055,-2.6094380048104484,-2.5902930613109088,-2.668007265667309,-2.6716207453245926,-2.5415569503794693,-2.4142759887629843,-2.3777628388326986,-2.3746118119488226,-2.0571376854058654,-1.5925238551433232,-1.3480818577879747,-0.933059431627922,-0.6378508633565615,-0.22942605540946642,-0.006937829186399354,0.10938607515066728,0.4093519266506804,0.575188325170783,0.6976444336128925,0.8042821244839846,1.2033358731799626,0.900850250367544,1.0801653259606827,1.1735881048884724,1.3248068633010592,1.2328350808645279,1.3575100583755209,1.2164556770405293,1.281700130369732,1.2865870133674377,1.132709256592363,1.204105552342904,1.2155641125586114,1.0511993493799041,0.9397890691837165,0.9551164208811692,0.9359317739338083,0.9847329038315558,0.8020325700190305,0.8913482246232035,0.8503339126614383,0.8078507664892547,0.8285365758791444,0.7126482378550695,0.6031868403183652,0.5961865215389561,0.5544715692531841,0.4572227112956039,0.3239187497824322,0.389718259099276,0.33755867902185366,0.2496321129770818,0.19077226015915877,0.04754485016582172,-0.14098779817096546,-0.03838003196580905,-0.19343347852604506,-0.1252054120310041,-0.3068025175374666,-0.28990313663437917,-0.37298438235962716,-0.4688573863668524,-0.3870949892218729,-0.6121349899215116,-0.7597497449115934,-0.7148895503754379,-0.5365138223332593,-0.7167395642310075,-0.6397970229761534,-0.7538475854027238,-0.6768598270366293,-0.853701295378889,-0.774116699704941,-0.736287689103714,-0.8985045320331316,-0.8708875402670787,-0.7940984136814861,-0.7156918776800649,-0.7916117568888098,-0.6058704998074829,-0.5845121921839833,-0.6246403396614072,-0.5382135714373141,-0.46559830898821514,-0.40206183603325546,Fusion
0.1386173386990733,0.05944636425685075,0.12946313858225778,0.04803110124013285,0.18622180402604407,0.38012325639787126,0.29435525012385233,0.413659990448245,0.38109969136784577,0.41491627875317316,0.5095234418427181,0.2676475703479862,0.5652038068864436,0.3882819124721208,0.5926916590538963,0.5624678008201244,0.5667212202383232,0.8082040932958101,0.812509826237851,0.7304653744429167,0.9884450001530847,0.9192190413056519,0.8685665033192613,0.768028692213337,0.9407281425790895,0.9148055586781767,0.9283882661667898,0.9798992128438223,0.8596496081204131,0.962836737891072,0.7502942311752788,0.6395503200051055,0.6994999925391954,0.5724958441212081,0.5732296280511268,0.4518668148887641,0.26278014345842843,0.3345813446416377,0.1721819318467915,0.1865786451931223,0.04970461373150558,-0.006594729055141779,-0.08774428391741336,-0.14964453144059803,-0.388064824908845,-0.7226628431702652,-0.7517429260939791,-0.8589522878553496,-0.9847606239282415,-1.2745376509124973,-1.4398589615805668,-1.7202944085681628,-1.9109109067096584,-2.1149336093238955,-2.141424949124424,-2.1790777924414764,-2.4248495037480677,-2.317566084408316,-2.3726007556065505,-2.0450471775378345,-2.0346966252706475,-1.8972158476901482,-1.8213334086269621,-1.5791626614345233,-1.4016047708247303,-1.3246255396310773,-1.0814176883820887,-1.0294622628018228,-0.8048649999345021,-0.8069201019151566,-0.6106748568712261,-0.537975490550077,-0.3992138704781782,-0.31080340322355726,-0.21627616258585772,-0.18204416830763934,0.02216824166766186,0.09950376300922864,0.2218184664235084,0.2563204156043112,0.3222609438812853,0.32246103454105146,0.4051965315236306,0.46134290298987257,0.604240437335617,0.44390588774772677,0.44221366841493537,0.5416220673759607,0.47841447755814653,0.4986888158357359,0.4831886602551206,0.45850549335759677,0.44165825390379115,0.4260135176695933,0.47346287739530835,0.39313168370690843,0.5699175237991123,0.46563204497906946,0.5902684545882584,0.5206683575536888,0.6766345816449112,0.6170211144025817,0.5469562521509761,0.8506543329480072,0.6329889017796737,0.6349086828827498,0.6504638054325801,0.7282811266936413,0.5837785706937888,0.7109402595004313,0.5617769191795474,0.6836459091096702,0.7690576275953522,0.6204196956926664,0.7182013488872198,0.4926559060682531,0.5522269359167754,0.4766090654218572,0.6968249518533616,0.4783057274167304,0.4229804676798741,0.4159984653583751,0.3964763127379724,0.3235096446905129,0.21330448305341462,0.37033479925749524,0.3018596223762821,0.19275708604615263,0.138919521893897,0.0835790477857723,-0.020711240321256923,-0.08000871604793966,0.04230035714634396,-0.08519683309916079,-0.2908664722484738,-0.2689277122050726,-0.2408782050807446,-0.29608772618267326,-0.3272177253286863,-0.5303327255462696,Ventricular
-0.04881672530860037,0.008940110961633597,0.07349511159767669,0.21244021962225096,0.2711348241484388,0.186270115379094,0.14916280035476148,0.29438246859024764,0.2727500762876991,0.30694707445871866,0.2525413692812253,0.23685712800380207,0.39643818545498033,0.3456130745475111,0.4245839416963978,0.6252714880785626,0.5454999697033277,0.6893012450981172,0.6785353536024717,0.7581132120232817,0.7229839412261042,0.9093290405129697,0.8817635184245333,0.8609479910166409,0.9145389368895435,0.821078037051453,0.8239587399879066,0.7923120637929238,0.6825392914215188,0.7532251724026118,0.47408526884728797,0.531609516199681,0.22013772310156335,0.059875231440688355,-0.058494484870766444,-0.02315270585367081,0.03703659419412554,-0.1677757114280766,0.12764988264446164,0.05662245507390856,0.36109619250479463,0.40089104859576935,0.33569748979502756,0.3391858461984146,0.18165760896274585,0.2108063833097491,0.14667757087343936,0.07711380871009096,0.06818009814992505,-0.05340772932005407,-0.30440011834205194,-0.6139757249853683,-0.9034209711700465,-1.0852162004685795,-1.2768874392163259,-1.4545417869306143,-1.534143219566424,-1.383009930381151,-1.2485572607707887,-1.2360431781754286,-0.9729637042458086,-0.7060445299279937,-0.5488655423999398,-0.5233053991229666,-0.4383418904940872,-0.417244914526328,-0.3522108680951175,-0.5208876985692884,-0.4200524859503486,-0.5228912360509801,-0.373010312344105,-0.548997111376022,-0.4306409283522753,-0.5268440895552612,-0.38210868675710086,-0.38632973717268587,-0.37457460920784286,-0.20271430833278953,-0.3760904226709153,-0.20188612137604822,-0.1358048438800907,-0.10859987280029366,-0.19180415634495912,-0.11528175794111448,-0.10992197922211619,-0.05786851824241694,-0.0828740708310201,-0.03550049833876058,0.11092276998447798,-0.040414818006013764,-0.021720719922088856,-0.10860833710522741,-0.07513316224335491,-0.031973111315343125,-0.08189509510106753,-0.02752837160146157,-0.2533101986944202,-0.22718331331220043,-0.20392161684866555,-0.04702868700477987,-0.1373515906479169,-0.261387866571785,-0.042555519586902735,-0.09892008613659392,-0.01078196775936241,0.07308676585229762,-0.10131131304042368,0.1355603553458628,0.03598967490224449,0.042440987800715105,0.12181699012396487,0.047908927641329424,0.17531884094580324,0.1906420106444167,0.16751938256933152,0.22259530032130753,0.39617953600827127,0.3207061946334456,0.2851080710576882,0.42681689399489725,0.47834805124192853,0.44146948608908754,0.3659897952446617,0.2824858115541,0.4339472881005714,0.6084171286954162,0.6173564158844285,0.49103238996366694,0.5483149444531461,0.6335268513504703,0.5751462941651139,0.6676243004570972,0.5893906759406787,0.6380849837179156,0.5740537061318047,0.5354096419535187,0.6875625142386048,0.4682805869118589,0.5325623526342644,0.5630864631253188,Supraventricular
-0.057548527659536636,0.03818691515443778,0.030758961308402985,0.035549907792497,-0.042542053016633954,0.0713334436785393,0.04611054539042375,0.20180996170841603,0.26036308833944516,0.2650260467965755,0.26004287532300735,0.19462492046572516,0.3140667912005216,0.4015094510080115,0.33789570503218774,0.44688973614514294,0.4824858302856891,0.6849233222954889,0.674650269894777,0.7018513882634467,0.5500281139941794,0.7201442543026271,0.6967379835169328,0.6842006811271978,0.5491089341091833,0.5573133345578355,0.6069767995006526,0.671509044098973,0.5095660030396824,0.5049885968071354,0.6653754179530651,0.48994530573611383,0.49785776502326556,0.4957934665718062,0.39548938445900383,0.5473978393022167,0.44776179296668034,0.495361883221892,0.5303122621545536,0.6462649822515758,0.3805834123901703,0.549365734213268,0.542806513846975,0.41425290197029874,0.5037525379434152,0.5751824995670789,0.36535555875422615,0.41849627869775596,0.3849763635250113,0.3166367747004708,0.21063326270875218,-0.01700239695374966,-0.21695555088120225,-0.5793496148838168,-0.7156098895671891,-0.9112001220307819,-1.001956964028729,-0.8572431284542564,-0.6207221184548096,-0.3963027632667171,-0.33383830909461415,-0.15283466555065184,0.08031003001535111,0.11511261512431144,0.16317418480059254,0.19856021677839397,0.11822419270576415,0.023175711493309596,0.04491638893586522,0.14755280354158765,0.21532975418142497,0.011461023525839307,-0.0012853855325493171,-0.002985361053713144,-0.07396708662166511,0.004975472403982134,-0.016701464068724553,-0.07471266360200343,-0.1303744937067979,-0.2244087810431599,-0.03793873334396944,-0.06951327910464383,-0.13237914173963006,-0.1482604879459525,0.011664598782996229,-0.15302302881603289,0.01352067713248414,0.06806851874058217,0.05069854479059378,-0.024566897385435944,-0.10026525829407491,0.032248209090040704,0.059643053714952154,-0.11059443991354856,-0.05826038733829085,-0.010622214731520474,-0.15108346965457226,-0.25206158394073463,-0.17865315083679278,-0.3606212851135455,-0.44210376698455756,-0.30598778996331355,-0.43175470187160014,-0.44819857067030355,-0.4919887819059621,-0.4941660615865874,-0.3544985179694137,-0.3404544555431859,-0.33332842442266336,-0.3903846692656324,-0.4385552398999774,-0.5866462368560762,-0.4815079354529103,-0.2868812420237568,-0.48584715180290666,-0.32024690512882176,-0.426273233543295,-0.6332274953658846,-0.35510680256790994,-0.29153864844562977,-0.38242176992738014,-0.26473146730106595,-0.4809234348773801,-0.44174884917940593,-0.29724210984158456,-0.25754732800656827,-0.1686704950034042,-0.20699642621030437,-0.3339867730698236,-0.2013515198329055,-0.14978947881448162,-0.32683468420276124,-0.15907353263040547,-0.16079849759308212,-0.16442272082196008,-0.05001158454351695,-0.15957105554555953,-0.011790861193515835,0.02216560044474938,0.0867010648300367,Normal
0.03288866926719458,-0.01023830056319086,0.22968432483286916,0.32048229147610996,0.29324206870592257,0.30746309141369826,0.5232682571561911,0.5762245058969295,0.43661643513384674,0.5374957332250629,0.6013819181572642,0.7795695562530196,0.7575809647962931,0.6934290402402132,0.7467126165938045,0.7612197660155553,0.7269227720564753,0.8430735987233533,0.8477652196034956,0.8663015745980276,0.8429512871499987,0.7444302630957558,0.7876592689272496,0.8517945898496142,0.9270830585309056,0.8837520467766673,0.7630096006011036,0.6895682778472588,0.8237252648176558,0.8172255025542272,0.786655594303268,0.7846490082022446,0.6410005433518627,0.4973812688160562,0.29745287004088694,0.34859306218607805,0.04283521660689979,0.11916716646770076,0.090678880873846,-0.03429295160367073,-0.2599099570834197,-0.4417697043181692,-0.4538685127103025,-0.4805926636185628,-0.608362741371905,-0.6854992960947577,-0.9908408433600331,-0.9498581064931566,-1.2589597703716042,-1.4309855777789606,-1.709669142382951,-1.8582218385695117,-2.199549568533453,-2.498348975217592,-2.478143569741549,-2.757137049118371,-2.6958383684992726,-2.6011457303965426,-2.616682215949537,-2.6120032008403182,-2.53495743147439,-2.509462960974757,-2.2154239569557324,-1.9562088329309744,-1.6572642921699925,-1.3093163615552894,-0.9515130538501374,-0.5335953824513239,-0.3480929720165865,-0.1567375823388717,0.23244986661334027,0.23506838833792348,0.44269869583202026,0.6835093547478205,0.811408322382315,0.8939211587175737,1.126276534587383,1.1808984846321695,1.1643921627611669,1.178053556157205,1.2747051228361377,1.2806104165997414,1.3563932352317694,1.2279421419567715,1.2978208057032128,1.0738516311345945,1.168831736524901,1.0422822746549154,1.0576685841948483,0.9989906867137541,0.8889608115125256,0.8821345857284888,0.8687229166154362,1.0112526453585327,0.7951039383425724,0.6516789723316669,0.7083522898681828,0.5887532659071482,0.6057410122229098,0.4507643821207158,0.5492605733097906,0.5786797592150819,0.4622998509255019,0.4099005809098389,0.5833480689281916,0.2687675438076218,0.27007809153950857,0.1949048060081416,0.13928381488354186,0.0019601521132759647,0.0432506224720483,0.008406734020300677,-0.14920201497428637,-0.12802020789670107,-0.24319920861123226,-0.3360312535617442,-0.49272073745293815,-0.477159844788015,-0.4416491639894634,-0.6023920423943125,-0.6110360327623343,-0.7447617030738677,-0.6654966293992141,-0.6895184190585302,-0.5651414164887945,-0.7544970403916135,-0.7637627641068828,-0.8091781261870276,-0.8069122140147927,-0.8213168895778111,-0.6797767151349297,-0.8153064745278413,-0.6619633130326118,-0.7350676540895457,-0.7639505258306944,-0.7055513099425573,-0.6748928892547719,-0.6166889910776531,-0.6206166398462407,-0.5299763113823445,Fusion
0.023547326222728267,0.17048596239001113,0.16639569442861285,0.09547843988460333,0.24087260480136938,0.25696997733641513,0.15351993530521885,0.5124257352830801,0.29803030505204764,0.415653372666962,0.42580057476877997,0.5099694517684189,0.5509139612790352,0.6145260242582301,0.5612456043957051,0.7158702098082734,0.6048222683086959,0.6474222285093796,0.585336476549103,0.7773516692642943,0.9197882249678843,0.8198698026131105,1.022413658269246,0.8318198634655092,0.8400078929251067,1.0764104448044858,0.9518568031477811,0.868881378666925,0.93093580176258,0.88377040801266,0.8683185936749888,0.6948548960198283,0.5390474480508112,0.5528421796955908,0.5032300978222063,0.5282785352362425,0.253238176237381,0.28013916982023823,0.26828550795392675,0.2985177741231493,0.04402998019089749,-0.05522904969974155,-0.037994637244162875,-0.39052831431205415,-0.38928579244562844,-0.45224386142885287,-0.6469952719164966,-0.8534724915851553,-1.2105190537674735,-1.4005323748588494,-1.4121017157825584,-1.740456438674011,-1.9458315938495339,-2.1587355027357287,-2.2238970392251423,-2.3498314829680096,-2.2791271518632894,-2.419847172185275,-2.2104594492271596,-2.047215363205132,-1.9989451089176198,-1.9943444081461001,-1.6645515096569519,-1.600299560247158,-1.437421798867721,-1.227886407757685,-1.1132729529277368,-0.9978909082010157,-0.7847614822857523,-0.7187899964946857,-0.7761890487814215,-0.44063444775687083,-0.3274015544805545,-0.2759403609339721,-0.1710176752380431,-0.14066090609550763,-0.11786221245841885,0.09072528414449854,0.2946993635628622,0.2801707747207822,0.4695429571859048,0.5404548504150734,0.45517557914184614,0.4621040210453692,0.4929989617851284,0.5333527364489009,0.4714491795509888,0.5918219708366084,0.6162629312932397,0.38124176030232115,0.661091113140645,0.4667357951500842,0.4790765989594314,0.5251770476631754,0.435944917198203,0.4628511320413546,0.45499615772159435,0.5362543780036801,0.507500931122232,0.6035793612145998,0.48838113106808195,0.6493389563185801,0.5429211221250236,0.7316843943168753,0.7314304548425435,0.5082867391384277,0.7569293528864219,0.4876172182848814,0.6062544334392681,0.7827178039172116,0.6532987894761191,0.8143978511697114,0.7355573847046387,0.6304547214597905,0.6013138393395102,0.7464706282642246,0.5636431635744791,0.425751163520797,0.4699071683252856,0.5207930530985544,0.4121786120664909,0.6278581697563526,0.34418600854937453,0.3032644793616894,0.22978035704371336,0.3328927240835976,0.19248867857422405,0.2312174832591344,0.2089138088191626,0.09541834783101659,0.04049988682257815,-0.13083937512369853,-0.20637668126551312,-0.25490627191306,-0.17868659608478438,-0.04844180927299507,-0.32523089902132796,-0.24352897663894574,-0.32742857556470706,-0.40874205772637495,Ventricular
0.11432204942799272,0.20841500295165954,0.33778011916267775,0.5160798524939735,0.7257178408692987,0.7338194735080849,0.7881418716079412,0.8272306649149378,0.8845177096130519,0.7517251522078573,0.7629483407517893,0.7169812074609019,0.7000565547887285,0.697169968102971,0.6039114227486706,0.5598166962429464,0.6727461038162865,0.5331899745449987,0.6278631431903509,0.6971086140793732,0.7860773819057603,0.7903077755493935,1.0216923960352244,0.9402603543702618,0.8266654185165856,0.8371392810797519,0.8987733030830016,0.6558824467367583,0.6831903518272174,0.5394341791089012,0.3809269135697755,0.23243741605303492,-0.01822057233552428,-0.13156500830034648,-0.3382170091775666,-0.42484150260721726,-0.5168752991829564,-0.5860410174160866,-0.6123941912327501,-0.583574092040373,-0.6251765823204037,-0.6516653709965936,-0.7065160757219877,-0.7436881246678823,-0.7203552400051368,-0.8878452238103474,-1.0360482538291742,-1.1190111448705282,-1.5793504108811611,-1.8215347814048157,-1.95581220667934,-2.3652582236818516,-2.6063999525296793,-2.6380318183047127,-2.70904141433893,-2.813369958205448,-2.8514381513323164,-2.590016649918505,-2.4396210684897124,-1.939920224148526,-1.502878768464954,-1.1020594994019444,-0.6362068641320482,-0.0817278104369199,0.13352523454161444,0.4952955279456353,0.7643120304908925,1.0177684317057019,1.1243768158468594,1.232032267283012,1.4104409439562087,1.3709452438401406,1.3977205404522837,1.4799435498339584,1.4851468794009934,1.5052285624476291,1.6019998332665053,1.5140183820783,1.517948160552041,1.6426587804442827,1.6619146771278483,1.607509673953464,1.477060534262607,1.6871308274101282,1.455956850740595,1.3363621492101891,1.0666488211517287,0.9569058593694639,0.847282929971567,0.6592945235040151,0.37502454944567376,0.37797673339308535,0.09312981961348568,-0.14283331499902946,-0.27000032450503114,-0.36872613827387635,-0.4465178740988746,-0.39546376407145867,-0.37613564077278966,-0.26938881120649616,-0.3193984295033092,-0.2726300863697412,-0.40548320795678416,-0.350767274321274,-0.4150591324453532,-0.5659986634719468,-0.5025185886502479,-0.5615294377013528,-0.8031433623141581,-0.7731410644554507,-0.9363011564259663,-1.0777744668986522,-1.0698808746672133,-1.0330026147376108,-0.9965812471035789,-1.0890599996928947,-0.9345119100675202,-0.7820302672898011,-0.7666261862178152,-0.5738614807514884,-0.5906955066790135,-0.34940480812099073,-0.14047647709366728,-0.13747297939016115,0.045181259263900576,0.2688670463899114,0.2144776456341069,0.34552159009257605,0.29519447839841517,0.12895464795068595,0.16930251041483324,0.22967570916428048,0.27532288965420076,0.2938752079570025,0.2944148892811774,0.3730538571192204,0.5358661705462189,0.4903015221544157,0.6543346480815381,0.8917209099932105,Unknown
-0.04148713760946986,0.16007399706427472,0.030036464138121693,0.06076823621960627,-0.08715878665202366,0.09686294264908515,0.20186760616811822,0.07226033903131349,0.12101975625222616,0.2691882079013809,0.11452029027136248,0.3474815664403508,0.2550632181785206,0.30700278187716523,0.2948842785741186,0.4676145232677731,0.6909125162296333,0.6144537678835007,0.5373835981183722,0.7439682661628935,0.6620292490366743,0.8162760666754252,0.7736731700040476,0.461841924735049,0.5938556412921123,0.7198856421684722,0.6245507803047167,0.5004601060271081,0.5061208073873312,0.38448476536832626,0.5158181953280568,0.6905462749508019,0.572555598190138,0.6802464092310193,0.573721563354563,0.5838523368972228,0.6579181774730294,0.5279485933324491,0.4797842392805794,0.5734729764585054,0.6023122349236205,0.4417699879909933,0.4155831267658552,0.476418566387111,0.5223121394537896,0.5075548913566525,0.3126198474762136,0.5521071802920093,0.3012990600580804,0.25269726655310043,0.07687757305244558,0.18555952366104345,-0.23866479216600506,-0.5745097293284441,-0.6596162850613579,-0.8115619584315381,-0.9185888135027926,-0.7492630274766338,-0.7083019866971234,-0.4706000073722727,-0.3931789117860775,-0.1837366149502272,0.16694799209354827,0.20577505793282752,0.09746906372880132,0.22216829837945617,0.062387265009851874,0.03688749746154674,0.040249284166556376,0.004767307841511833,-0.023041871526220434,0.06588516283841478,-0.03211886432095759,-0.004043489258802102,0.006639927734972323,-0.05707797613104911,-0.17496679356001174,-0.21129205049103184,-0.09303045044176424,-0.11645357443898371,-0.08954050283949973,-0.08782626746261905,0.1333281695260234,-0.16428496719768937,-0.2004457307533539,0.0016660235948930888,-0.040564422230075885,0.02586991558546677,0.05341775565998401,0.10942066017755109,-0.12089336516679686,-0.059250761922147545,-0.002097892930860372,-0.00313868387912717,0.07666292066135127,-0.060687106540955826,-0.18273432504080322,-0.29154603258592454,-0.307064622259367,-0.34903263301748905,-0.2858297154992148,-0.35041368960812547,-0.5051536864602895,-0.4577490070772434,-0.3716297267857627,-0.42820768154433597,-0.4212496228905413,-0.4428206200012982,-0.34681225654552333,-0.4587108738538838,-0.5067387645114922,-0.545323792792112,-0.4465372025641054,-0.6546779222956586,-0.4657405456493113,-0.45784565190431126,-0.5398337673551211,-0.49323737159011255,-0.34157304524956766,-0.3743820842138977,-0.3703590257395504,-0.3388677449453372,-0.34008702668809926,-0.23147470303879122,-0.30375691995214765,-0.4123735553374709,-0.14678640730083367,-0.22848316216388156,-0.2856367443842256,-0.3186673070624579,-0.16617453676088995,-0.18626972470494096,-0.029651112168771532,-0.16162447653137035,-0.17903773809689782,-0.018250051224856456,0.006426017996420896,-0.03164911274499216,0.03151487392203049,-0.003014969650220215,Normal
0.012016509368743261,0.13127263521135335,0.10667800924548332,0.15711641060867532,0.05336854330909127,0.13224700026464353,0.26331787335858087,0.24878042568695688,0.3104938309131231,0.3530131696826676,0.34838242808440795,0.49277645690650473,0.35542889922296583,0.3656424466506125,0.3258078266065607,0.5665467045511057,0.5055081854791129,0.702014322732006,0.6746801098766159,0.6842996560628123,0.6826158650877757,0.8848170501892416,0.8525862629999049,0.9035243187189386,0.9380702495527043,0.8995576734568947,0.7794678390469069,0.8384352212515581,0.7902104626589712,0.6573458865037435,0.5578877718121624,0.4230514761225551,0.18307132271955545,0.043937016526460614,0.1600027039768456,0.04911534673131027,-0.03835531137387206,0.08988551528122522,0.05224442965856432,0.16775959774779042,0.1827973654020635,0.34376906037216315,0.35620880151361567,0.4092203852587827,0.2790761383479807,0.33991630887630675,0.247885042115271,0.3097726998065227,0.13177544544289113,-0.036571564196969455,-0.2863914482404836,-0.6596412356106687,-0.8203043800421543,-0.9126537089357157,-1.2600528397632615,-1.5026054796674997,-1.4545403814944822,-1.5113987564943228,-1.3741347397756778,-1.098056542090473,-0.8831011616662542,-0.8321104229723546,-0.6727165569119351,-0.6425807513320797,-0.47791215658010555,-0.5931301514491701,-0.4524871559110806,-0.425784751277269,-0.5819240756839585,-0.5323631854702633,-0.46486412035965285,-0.48005551483830694,-0.4753490801501984,-0.4331230003217167,-0.5760372492989525,-0.3647800486170429,-0.4192458609804535,-0.40728492231328295,-0.4690766157635731,-0.29737795453913257,-0.1886034261427915,-0.17138270271751282,-0.12395122290634727,-0.12363742638230633,-0.06628876375824595,-0.1226814132535506,-0.0159617461160742,-0.045729186869780884,-0.09647132623710634,0.045501741907115895,-0.1561876788967399,-0.008630961801654888,-0.026961916855995846,-0.14028588266448228,-0.03861830049283532,-0.1848590232966731,-0.20541805365709276,-0.2627023071101823,-0.17156503007000704,-0.24571473356962176,-0.22458611500959436,-0.15325293889273028,-0.13181504485429563,-0.00721280829914929,-0.007524952530491735,-0.009517936729310082,-0.03482735753917674,-0.02341959267171668,0.039798350723900575,0.031051989936988746,0.05336951173563962,0.13700553021371514,0.10664242030101513,0.1447033284123719,0.31896140794868894,0.16393230121896402,0.22194770357168714,0.4367823259135366,0.33219538773323043,0.501046226231924,0.3236265004918918,0.44753217690471275,0.526466107351923,0.4137287612952918,0.6399614564485518,0.4928484745691083,0.5810561402893573,0.5004717845991986,0.6865175109045826,0.6019714055068972,0.7540049227957817,0.6870444564212662,0.6641313280128193,0.5231478079040186,0.6065842035211777,0.5727895201235734,0.5964048940541731,0.6002557371616126,0.5084822520590818,0.558108912950041,Supraventricular
0.10183671956909013,0.017557073166816956,0.050166214906323524,0.09483756787168171,0.34503300029451417,0.22005244301754662,0.19103937118795639,0.0846537862663015,0.19256456905001057,0.14072139897497682,0.29842173593543175,0.27409484389578587,0.20767299502325717,0.34457820618994167,0.3168411534068617,0.44946812014054616,0.4253965721180624,0.5541329993955152,0.6665640080284226,0.6488744599695669,0.6560925513376231,0.7225793658458174,0.7649136674943268,0.6087185883822468,0.6950345043049307,0.749738089863033,0.6583107555952525,0.5869809135771145,0.6079869691627479,0.5731834114636913,0.5831761470629536,0.3517765679909052,0.3838844362384908,0.5853993810946044,0.3827074620784494,0.5337770802865439,0.4718279099708441,0.4180723929373913,0.5227344055729277,0.5069430554260701,0.6548324281215799,0.43018226304509893,0.5885174629585914,0.49350391694338575,0.4029104795758397,0.5076473240651072,0.4718123358475376,0.4020461585155875,0.3738958829250783,0.22614350382054427,0.08302695183111061,0.030448590691883052,-0.2759455997341044,-0.5128383627338463,-0.7063444413828115,-0.8518697531936361,-1.0179167692943272,-0.7136113975829157,-0.6325840576786,-0.4473788064021045,-0.19789389900721274,-0.05889715272347314,0.0837025427990696,0.11749946148711765,0.14963367015658566,0.19721329506247043,0.14588318785619403,0.04352142404069436,-0.05410366019683476,0.14818487010775827,-0.024844035509175015,-0.06343527880239123,-0.18306786205860898,-0.033964181988537546,-0.06395958597091254,-0.20934203468338625,-0.06108316411669856,-0.14291813303002388,0.11029229935674684,-0.14830196542025842,-0.13134728372893292,-0.1565240422630816,0.028872398396055793,-0.08768893030356259,-0.09924316146890363,0.031632277706967714,-0.12087885269607508,0.05059332970698646,0.14921909120533253,0.0520209111900464,0.05071656576471221,0.054891487259024194,0.10037784865272001,0.032015745267423054,-0.0636394655798777,-0.0648321121791851,-0.24906603140710992,-0.15820768509072586,-0.34236591173654524,-0.3309782006714507,-0.5848533797917747,-0.338859112505595,-0.4507714816815833,-0.3339852723336518,-0.4106181222134442,-0.36641299836613067,-0.553428915745366,-0.39038347383310856,-0.30845820776516597,-0.41646165496528187,-0.4126290199864533,-0.4584955753898323,-0.5084794616661115,-0.39852621129753113,-0.5714840583348598,-0.47479887310426905,-0.5723606432527132,-0.47526861468283954,-0.35498204030994207,-0.35240755404225765,-0.3744289967932988,-0.3497434681349382,-0.4983664031531499,-0.3607086905131296,-0.3681393830032563,-0.3484412814731341,-0.22923051426568622,-0.3269509696706141,-0.28687091393081304,-0.3853607092556177,-0.22137752886762713,-0.2639229681240805,-0.14924662075619274,-0.2100405378174213,-0.10368389527836316,-0.1014886095431182,0.06616680842246003,-0.005363783717552299,-0.16976471969694643,-0.10119110751905787,Normal
0.03380299305023878,-0.0057326422939393,0.0968993147837372,0.11945029352377518,0.10556050799328637,0.062156197199354835,0.12495147022791711,0.17038973914798278,0.19200646347162242,0.340336685248471,0.5054212501358217,0.32534475675941754,0.36720980925484664,0.38440317126079365,0.5356194717340883,0.5407669901025283,0.5497823326291645,0.5036849317682837,0.5774229269627871,0.7254297712251621,0.7848498735959667,0.8158073798607014,0.9100914273842756,0.7842939502389367,0.9140021326941912,0.8981363418394966,0.770818171697426,0.7483418007488629,0.7800447613720735,0.5374402317570866,0.7044015875243834,0.409468859135922,0.21016940615541468,0.05844941278777181,0.044915866466245055,-0.08985341286314717,-0.06412414104175695,0.15146626080030173,0.08953449653649628,0.2265566066230412,0.22173317145453658,0.341639388043198,0.3788687428120795,0.45714593756731947,0.22105094189605642,0.13875934004411264,0.17430872754669216,0.06366508413422688,-0.002829595630759068,-0.11418503634700429,-0.17204421150837884,-0.624222033097735,-1.0205601964409328,-1.1114962587980415,-1.2725670058957341,-1.514433653787351,-1.4627233426934185,-1.4212318469407454,-1.2848510643608209,-1.067782726727113,-0.9488801383769794,-0.7244736528432751,-0.7718689312325865,-0.6054610873820385,-0.49489138221130985,-0.5178582971416041,-0.4280278756094905,-0.4596503767338301,-0.4778716441297954,-0.3810781683557384,-0.453351042841708,-0.5510261480868783,-0.5115858367238274,-0.39590639866018107,-0.42632586772659187,-0.3257976408243174,-0.3260223675830525,-0.39071449245813594,-0.20504750211567202,-0.15454655514978577,-0.37239941125448295,-0.18016600794476328,-0.1816034104858289,-0.11735199722529151,-0.1267369464141618,-0.10939817758635119,0.05651339614194484,-0.09988599014096759,0.0009809752120193173,-0.12280676441213367,0.07136479367342774,-0.048171101331973804,-0.014310393484527874,-0.08249831376177519,-0.14131055020851852,-0.13552214225666911,-0.03593889837449518,-0.23846802082004798,-0.37483746958274533,-0.23197129125706628,-0.2579814126727586,-0.07058184508560515,-0.14399279796327266,-0.04149141211787995,-0.07945625412041378,-0.052903232692699254,-0.009987791909767287,0.12730362652662444,0.056847958545225286,0.16428816645255823,0.19305703758306997,0.1302456554949707,0.1709983464865634,0.17983314974085163,0.34522565889378654,0.1990216672541178,0.2472905737125144,0.3128208969779464,0.27171433809206114,0.3436605625160188,0.5079010055376837,0.4937420550983611,0.4310607144518698,0.5504327970356175,0.6725674766857885,0.5491254086357664,0.6539577009671595,0.6228432589497217,0.5436334454439237,0.5934864662611479,0.6283251281035541,0.5331211160247169,0.3884288040898881,0.5328311262920383,0.42722459852898365,0.5380074313719986,0.4577111496792402,0.6588467712474693,0.4859302495922772,0.6141625568935074,Supraventricular
